Time,Voltage
0.0,0.046630848199129105
5.690380930900574e-07,0.046508777886629105
1.1380761861801147e-06,0.046411123126745224
1.7071142792701721e-06,0.046337880194187164
2.275221049785614e-06,0.046264637261629105
2.8442591428756714e-06,0.046142566949129105
3.4132972359657288e-06,0.045947253704071045
3.982335329055786e-06,0.045678697526454926
4.5513734221458435e-06,0.045312486588954926
5.120411515235901e-06,0.044750962406396866
5.689449608325958e-06,0.04401853680610657
6.2575563788414e-06,0.04309079796075821
6.8265944719314575e-06,0.04206540435552597
7.395632565021515e-06,0.04104001075029373
7.964670658111572e-06,0.04011227563023567
8.53370875120163e-06,0.039355434477329254
9.102746844291687e-06,0.038793910294771194
9.670853614807129e-06,0.038427699357271194
1.0239891707897186e-05,0.038207970559597015
1.0808929800987244e-05,0.038012657314538956
1.1377967894077301e-05,0.037719689309597015
1.1947005987167358e-05,0.037377890199422836
1.2516044080257416e-05,0.03703609108924866
1.3084150850772858e-05,0.03669429570436478
1.3653188943862915e-05,0.03637691214680672
1.4222227036952972e-05,0.03608394041657448
1.479126513004303e-05,0.03583979979157448
1.5360303223133087e-05,0.03564448654651642
1.5929341316223145e-05,0.0354980006814003
1.6497448086738586e-05,0.03540034592151642
1.7066486179828644e-05,0.03540034592151642
1.76355242729187e-05,0.03557124361395836
1.820456236600876e-05,0.03588862717151642
1.8773600459098816e-05,0.03637691214680672
1.9342638552188873e-05,0.036962851881980896
1.991167664527893e-05,0.037646446377038956
2.0479783415794373e-05,0.038354456424713135
2.104882150888443e-05,0.038989223539829254
2.1617859601974487e-05,0.03945309296250343
2.2186897695064545e-05,0.03964840620756149
2.2755935788154602e-05,0.03957516327500343
2.332497388124466e-05,0.039306607097387314
2.38930806517601e-05,0.038915980607271194
2.446211874485016e-05,0.038525354117155075
2.5031156837940216e-05,0.038232386112213135
2.5600194931030273e-05,0.038085900247097015
2.616923302412033e-05,0.038085900247097015
2.6738271117210388e-05,0.038159143179655075
2.730637788772583e-05,0.038183558732271194
2.7875415980815887e-05,0.038183558732271194
2.8444454073905945e-05,0.038061484694480896
2.9013492166996002e-05,0.037841759622097015
2.958253026008606e-05,0.037597618997097015
3.0151568353176117e-05,0.037402305752038956
3.071967512369156e-05,0.037377890199422836
3.1288713216781616e-05,0.03754878789186478
3.1857751309871674e-05,0.037792932242155075
3.242678940296173e-05,0.038037072867155075
3.299582749605179e-05,0.038207970559597015
3.3564865589141846e-05,0.038232386112213135
3.41339036822319e-05,0.038134731352329254
3.4702010452747345e-05,0.037963829934597015
3.52710485458374e-05,0.037841759622097015
3.584008663892746e-05,0.037792932242155075
3.640912473201752e-05,0.037792932242155075
3.6978162825107574e-05,0.037768516689538956
3.754720091819763e-05,0.037768516689538956
3.8115307688713074e-05,0.037744104862213135
3.868434578180313e-05,0.037719689309597015
3.925338387489319e-05,0.037695273756980896
3.9822421967983246e-05,0.037573203444480896
4.03914600610733e-05,0.037499960511922836
4.096049815416336e-05,0.037573203444480896
4.15286049246788e-05,0.037915002554655075
4.209764301776886e-05,0.038378871977329254
4.266668111085892e-05,0.038818325847387314
4.3235719203948975e-05,0.039111293852329254
4.380475729703903e-05,0.039233364164829254
4.437379539012909e-05,0.03920895233750343
4.494190216064453e-05,0.039086878299713135
4.551094025373459e-05,0.038940396159887314
4.6079978346824646e-05,0.038793910294771194
4.66490164399147e-05,0.038696255534887314
4.721805453300476e-05,0.038647428154945374
4.778709262609482e-05,0.038623012602329254
4.8356130719184875e-05,0.038549769669771194
4.892423748970032e-05,0.038354456424713135
4.9493275582790375e-05,0.038061484694480896
5.006231367588043e-05,0.037695273756980896
5.063135176897049e-05,0.037329062819480896
5.120038986206055e-05,0.03710933402180672
5.1769427955150604e-05,0.037133749574422836
5.2337534725666046e-05,0.037377890199422836
5.2906572818756104e-05,0.037719689309597015
5.347561091184616e-05,0.038037072867155075
5.404464900493622e-05,0.038330040872097015
5.4613687098026276e-05,0.038574181497097015
5.518272519111633e-05,0.038793910294771194
5.5750831961631775e-05,0.038964807987213135
5.631987005472183e-05,0.039111293852329254
5.688890814781189e-05,0.03920895233750343
5.745794624090195e-05,0.03920895233750343
5.8026984333992004e-05,0.039086878299713135
5.859602242708206e-05,0.038964807987213135
5.9164129197597504e-05,0.038915980607271194
5.973316729068756e-05,0.039062466472387314
6.030220538377762e-05,0.039501920342445374
6.0871243476867676e-05,0.04016110301017761
6.144028156995773e-05,0.04108884185552597
6.200931966304779e-05,0.04216306284070015
6.257835775613785e-05,0.04328611120581627
6.314646452665329e-05,0.044360335916280746
6.371550261974335e-05,0.045385729521512985
6.42845407128334e-05,0.046264637261629105
6.485357880592346e-05,0.0469970628619194
6.542261689901352e-05,0.04755858704447746
6.599165499210358e-05,0.04794921353459358
6.655976176261902e-05,0.0482177697122097
6.712879985570908e-05,0.04836425185203552
6.769783794879913e-05,0.04831542447209358
6.826687604188919e-05,0.0480956993997097
6.883591413497925e-05,0.04775390028953552
6.94049522280693e-05,0.04738768935203552
6.997305899858475e-05,0.04704589024186134
7.05420970916748e-05,0.046777334064245224
7.111113518476486e-05,0.046582020819187164
7.168017327785492e-05,0.046533193439245224
7.224921137094498e-05,0.046606436371803284
7.281824946403503e-05,0.046728506684303284
7.338635623455048e-05,0.046850576996803284
7.395539432764053e-05,0.046948231756687164
7.452443242073059e-05,0.047070302069187164
7.509347051382065e-05,0.047216787934303284
7.56625086069107e-05,0.04738768935203552
7.623154670000076e-05,0.04758300259709358
7.680058479309082e-05,0.04777831584215164
7.736869156360626e-05,0.04792479798197746
7.793772965669632e-05,0.0479736253619194
7.850676774978638e-05,0.04790038615465164
7.907580584287643e-05,0.04780272766947746
7.964484393596649e-05,0.0477294847369194
8.021388202905655e-05,0.0477294847369194
8.078198879957199e-05,0.04780272766947746
8.135102689266205e-05,0.04792479798197746
8.19200649857521e-05,0.04802245646715164
8.248910307884216e-05,0.04812011122703552
8.305814117193222e-05,0.0480956993997097
8.362717926502228e-05,0.04794921353459358
8.419528603553772e-05,0.04765624180436134
8.476432412862778e-05,0.047338858246803284
8.533336222171783e-05,0.047143545001745224
8.590240031480789e-05,0.047070302069187164
8.647143840789795e-05,0.047070302069187164
8.7040476500988e-05,0.0471191331744194
8.760858327150345e-05,0.047216787934303284
8.81776213645935e-05,0.04731444641947746
8.874665945768356e-05,0.04738768935203552
8.931569755077362e-05,0.047460928559303284
8.988473564386368e-05,0.04753417149186134
9.045377373695374e-05,0.04750975966453552
9.102188050746918e-05,0.04738768935203552
9.159091860055923e-05,0.04716796055436134
9.215995669364929e-05,0.0469970628619194
9.272899478673935e-05,0.046948231756687164
9.32980328798294e-05,0.04704589024186134
9.386707097291946e-05,0.04729003086686134
9.443610906600952e-05,0.04753417149186134
9.500421583652496e-05,0.04770507290959358
9.557325392961502e-05,0.04780272766947746
9.614229202270508e-05,0.04780272766947746
9.671133011579514e-05,0.04775390028953552
9.728036820888519e-05,0.04770507290959358
9.784940630197525e-05,0.0477294847369194
9.841751307249069e-05,0.04777831584215164
9.898655116558075e-05,0.04780272766947746
9.955558925867081e-05,0.04782714322209358
0.00010012462735176086,0.04782714322209358
0.00010069366544485092,0.04782714322209358
0.00010126270353794098,0.04780272766947746
0.00010183081030845642,0.04775390028953552
0.00010239984840154648,0.04770507290959358
0.00010296888649463654,0.04768065735697746
0.00010353792458772659,0.04768065735697746
0.00010410696268081665,0.04775390028953552
0.00010467600077390671,0.04782714322209358
0.00010524410754442215,0.04790038615465164
0.00010581314563751221,0.04794921353459358
0.00010638218373060226,0.04799804091453552
0.00010695122182369232,0.0480956993997097
0.00010752025991678238,0.04819335415959358
0.00010808929800987244,0.04829101264476776
0.0001086583361029625,0.04831542447209358
0.00010922644287347794,0.0482177697122097
0.00010979548096656799,0.04794921353459358
0.00011036451905965805,0.04755858704447746
0.00011093355715274811,0.0471191331744194
0.00011150259524583817,0.046752918511629105
0.00011207163333892822,0.046459950506687164
0.00011263974010944366,0.046240221709012985
0.00011320877820253372,0.046093739569187164
0.00011377781629562378,0.046044908463954926
0.00011434685438871384,0.046069324016571045
0.0001149158924818039,0.046142566949129105
0.00011548493057489395,0.046166982501745224
0.0001160530373454094,0.046093739569187164
0.00011662207543849945,0.045922838151454926
0.00011719111353158951,0.045751940459012985
0.00011776015162467957,0.045629870146512985
0.00011832918971776962,0.045605454593896866
0.00011889822781085968,0.045629870146512985
0.00011946633458137512,0.045727524906396866
0.00012003537267446518,0.045874010771512985
0.00012060441076755524,0.046069324016571045
0.0001211734488606453,0.046240221709012985
0.00012174248695373535,0.046386707574129105
0.0001223115250468254,0.046582020819187164
0.00012288056313991547,0.04680174961686134
0.0001234486699104309,0.047021474689245224
0.00012401770800352097,0.04726561903953552
0.00012458674609661102,0.04750975966453552
0.00012515578418970108,0.04768065735697746
0.00012572482228279114,0.04775390028953552
0.0001262938603758812,0.0477294847369194
0.00012686196714639664,0.04768065735697746
0.0001274310052394867,0.0476074144244194
0.00012800004333257675,0.04753417149186134
0.0001285690814256668,0.04741210117936134
0.00012913811951875687,0.04726561903953552
0.00012970715761184692,0.04716796055436134
0.00013027526438236237,0.0471191331744194
0.00013084430247545242,0.0471191331744194
0.00013141334056854248,0.0471191331744194
0.00013198237866163254,0.047094717621803284
0.0001325514167547226,0.04704589024186134
0.00013312045484781265,0.0469970628619194
0.0001336885616183281,0.04692381992936134
