Time,Voltage
0.0,0.04873046651482582
5.690380930900574e-07,0.04865722358226776
1.1380761861801147e-06,0.0485839806497097
1.7071142792701721e-06,0.04851073771715164
2.2756867110729218e-06,0.0483398400247097
2.844724804162979e-06,0.0480956993997097
3.4137628972530365e-06,0.04780272766947746
3.982335329055786e-06,0.0474853441119194
4.5513734221458435e-06,0.04716796055436134
5.120411515235901e-06,0.046899404376745224
5.6889839470386505e-06,0.046704091131687164
6.258022040128708e-06,0.046606436371803284
6.827060133218765e-06,0.046655263751745224
7.395632565021515e-06,0.046948231756687164
7.964670658111572e-06,0.04741210117936134
8.53370875120163e-06,0.04787597060203552
9.10228118300438e-06,0.04824218153953552
9.671319276094437e-06,0.0484619103372097
1.0240357369184494e-05,0.04860839620232582
1.0808929800987244e-05,0.0487060509622097
1.1377967894077301e-05,0.04873046651482582
1.1947005987167358e-05,0.0487060509622097
1.2515578418970108e-05,0.04865722358226776
1.3084616512060165e-05,0.04863280802965164
1.3653654605150223e-05,0.04860839620232582
1.4222227036952972e-05,0.04853515326976776
1.479126513004303e-05,0.0484619103372097
1.5360303223133087e-05,0.0483398400247097
1.5929341316223145e-05,0.04814452677965164
1.6497913748025894e-05,0.04790038615465164
1.706695184111595e-05,0.04765624180436134
1.763598993420601e-05,0.04741210117936134
1.820456236600876e-05,0.0472412034869194
1.8773600459098816e-05,0.04719237610697746
1.9342638552188873e-05,0.04726561903953552
1.9911210983991623e-05,0.047460928559303284
2.048024907708168e-05,0.0477294847369194
2.1049287170171738e-05,0.04802245646715164
2.1617859601974487e-05,0.04829101264476776
2.2186897695064545e-05,0.04848632588982582
2.2755935788154602e-05,0.04863280802965164
2.332450821995735e-05,0.0487060509622097
2.389354631304741e-05,0.04875487834215164
2.4462584406137466e-05,0.0488281212747097
2.5031156837940216e-05,0.04892577975988388
2.5600194931030273e-05,0.04899902269244194
2.616923302412033e-05,0.04902343451976776
2.673780545592308e-05,0.04902343451976776
2.7306843549013138e-05,0.04897460713982582
2.7875881642103195e-05,0.04885253682732582
2.8444454073905945e-05,0.04868163913488388
2.9013492166996002e-05,0.04838866740465164
2.958253026008606e-05,0.04799804091453552
3.015110269188881e-05,0.04763182997703552
3.0720140784978867e-05,0.047338858246803284
3.1289178878068924e-05,0.04726561903953552
3.185821697115898e-05,0.04729003086686134
3.242678940296173e-05,0.04743651673197746
3.299582749605179e-05,0.04758300259709358
3.3564865589141846e-05,0.04775390028953552
3.4133438020944595e-05,0.04787597060203552
3.470247611403465e-05,0.04799804091453552
3.527151420712471e-05,0.04814452677965164
3.584008663892746e-05,0.04824218153953552
3.640912473201752e-05,0.04829101264476776
3.6978162825107574e-05,0.04824218153953552
3.7546735256910324e-05,0.04814452677965164
3.811577335000038e-05,0.04804686829447746
3.868481144309044e-05,0.04792479798197746
3.925338387489319e-05,0.04782714322209358
3.9822421967983246e-05,0.04775390028953552
4.03914600610733e-05,0.04768065735697746
4.096003249287605e-05,0.04763182997703552
4.152907058596611e-05,0.04755858704447746
4.209810867905617e-05,0.04743651673197746
4.266668111085892e-05,0.047216787934303284
4.3235719203948975e-05,0.046972647309303284
4.380475729703903e-05,0.046728506684303284
4.437332972884178e-05,0.046582020819187164
4.494236782193184e-05,0.046533193439245224
4.5511405915021896e-05,0.046557605266571045
4.6080444008111954e-05,0.046630848199129105
4.66490164399147e-05,0.046752918511629105
4.721805453300476e-05,0.0468749925494194
4.778709262609482e-05,0.046972647309303284
4.835566505789757e-05,0.047070302069187164
4.8924703150987625e-05,0.04716796055436134
4.949374124407768e-05,0.0472412034869194
5.006231367588043e-05,0.0473632737994194
5.063135176897049e-05,0.047460928559303284
5.120038986206055e-05,0.04758300259709358
5.1768962293863297e-05,0.04770507290959358
5.2338000386953354e-05,0.04787597060203552
5.290703848004341e-05,0.04807128384709358
5.347561091184616e-05,0.04829101264476776
5.404464900493622e-05,0.04843749478459358
5.4613687098026276e-05,0.04851073771715164
5.5182259529829025e-05,0.04843749478459358
5.575129762291908e-05,0.04826659709215164
5.632033571600914e-05,0.04799804091453552
5.688890814781189e-05,0.0477294847369194
5.745794624090195e-05,0.0474853441119194
5.8026984333992004e-05,0.04731444641947746
5.8595556765794754e-05,0.0472412034869194
5.916459485888481e-05,0.047216787934303284
5.973363295197487e-05,0.047216787934303284
6.0302671045064926e-05,0.0472412034869194
6.0871243476867676e-05,0.04726561903953552
6.144028156995773e-05,0.04731444641947746
6.200931966304779e-05,0.0473632737994194
6.257789209485054e-05,0.0474853441119194
6.31469301879406e-05,0.04765624180436134
6.371596828103065e-05,0.0478515550494194
6.42845407128334e-05,0.04799804091453552
6.485357880592346e-05,0.04812011122703552
6.542261689901352e-05,0.04824218153953552
6.599118933081627e-05,0.04831542447209358
6.656022742390633e-05,0.04836425185203552
6.712926551699638e-05,0.0483398400247097
6.769783794879913e-05,0.0482177697122097
6.826687604188919e-05,0.04794921353459358
6.883591413497925e-05,0.04755858704447746
6.9404486566782e-05,0.047143545001745224
6.997352465987206e-05,0.04680174961686134
7.054256275296211e-05,0.046557605266571045
7.111113518476486e-05,0.046411123126745224
7.168017327785492e-05,0.046337880194187164
7.224921137094498e-05,0.046313464641571045
7.281778380274773e-05,0.046337880194187164
7.338682189583778e-05,0.046386707574129105
7.395585998892784e-05,0.046508777886629105
7.45248980820179e-05,0.04667967930436134
7.509347051382065e-05,0.046826161444187164
7.56625086069107e-05,0.046899404376745224
7.623154670000076e-05,0.046899404376745224
7.680011913180351e-05,0.046826161444187164
7.736915722489357e-05,0.046777334064245224
7.793819531798363e-05,0.046752918511629105
7.850676774978638e-05,0.046728506684303284
7.907580584287643e-05,0.046630848199129105
7.964484393596649e-05,0.046533193439245224
8.021341636776924e-05,0.046459950506687164
8.07824544608593e-05,0.046508777886629105
8.135149255394936e-05,0.046630848199129105
8.19200649857521e-05,0.046826161444187164
8.248910307884216e-05,0.04704589024186134
8.305814117193222e-05,0.04729003086686134
8.362671360373497e-05,0.04743651673197746
8.419575169682503e-05,0.0474853441119194
8.476478978991508e-05,0.04743651673197746
8.533336222171783e-05,0.0473632737994194
8.590240031480789e-05,0.04731444641947746
8.647143840789795e-05,0.04729003086686134
8.70400108397007e-05,0.04729003086686134
8.760904893279076e-05,0.04731444641947746
8.817808702588081e-05,0.04731444641947746
8.874665945768356e-05,0.047338858246803284
8.931569755077362e-05,0.04738768935203552
8.988473564386368e-05,0.04741210117936134
9.045377373695374e-05,0.04741210117936134
9.102234616875648e-05,0.04731444641947746
9.159138426184654e-05,0.04716796055436134
9.21604223549366e-05,0.0469970628619194
9.272899478673935e-05,0.046826161444187164
9.32980328798294e-05,0.046704091131687164
9.386707097291946e-05,0.046606436371803284
9.443564340472221e-05,0.046533193439245224
9.500468149781227e-05,0.046435534954071045
9.557371959090233e-05,0.046337880194187164
9.614229202270508e-05,0.046215809881687164
9.671133011579514e-05,0.046093739569187164
9.728036820888519e-05,0.045922838151454926
9.784894064068794e-05,0.045800767838954926
9.8417978733778e-05,0.045751940459012985
9.898701682686806e-05,0.045825183391571045
9.955558925867081e-05,0.046069324016571045
0.00010012462735176086,0.046411123126745224
0.00010069366544485092,0.04680174961686134
0.00010126223787665367,0.04716796055436134
0.00010183127596974373,0.04750975966453552
0.00010240031406283379,0.0477294847369194
0.00010296888649463654,0.04780272766947746
0.00010353792458772659,0.04775390028953552
0.00010410696268081665,0.04765624180436134
0.0001046755351126194,0.04753417149186134
0.00010524457320570946,0.0474853441119194
0.00010581361129879951,0.0474853441119194
0.00010638264939188957,0.0474853441119194
0.00010695168748497963,0.04743651673197746
0.00010751979425549507,0.0473632737994194
0.00010808883234858513,0.04729003086686134
0.00010865787044167519,0.04729003086686134
0.00010922690853476524,0.04731444641947746
0.0001097959466278553,0.0473632737994194
0.00011036498472094536,0.0473632737994194
0.0001109330914914608,0.04731444641947746
0.00011150212958455086,0.04729003086686134
0.00011207116767764091,0.04731444641947746
0.00011264020577073097,0.04741210117936134
0.00011320924386382103,0.047460928559303284
0.00011377828195691109,0.04741210117936134
0.00011434732005000114,0.04731444641947746
0.00011491542682051659,0.04729003086686134
0.00011548446491360664,0.04729003086686134
0.0001160535030066967,0.04738768935203552
0.00011662254109978676,0.04750975966453552
0.00011719157919287682,0.04768065735697746
0.00011776061728596687,0.04782714322209358
0.00011832872405648232,0.04790038615465164
0.00011889776214957237,0.04777831584215164
0.00011946680024266243,0.0474853441119194
0.00012003583833575249,0.047094717621803284
0.00012060487642884254,0.046704091131687164
0.0001211739145219326,0.046484366059303284
0.00012174202129244804,0.046459950506687164
0.0001223110593855381,0.046533193439245224
0.00012288009747862816,0.046704091131687164
0.00012344913557171822,0.0468749925494194
0.00012401817366480827,0.047094717621803284
0.00012458721175789833,0.0473632737994194
0.00012515531852841377,0.04763182997703552
0.00012572435662150383,0.04790038615465164
0.0001262933947145939,0.04816893860697746
0.00012686243280768394,0.04838866740465164
0.000127431470900774,0.04855956509709358
0.00012800050899386406,0.04860839620232582
0.00012856954708695412,0.04851073771715164
0.00012913765385746956,0.04824218153953552
0.00012970669195055962,0.04790038615465164
0.00013027573004364967,0.0476074144244194
0.00013084476813673973,0.04738768935203552
0.0001314138062298298,0.047216787934303284
0.00013198284432291985,0.0471191331744194
0.0001325509510934353,0.04704589024186134
0.00013311998918652534,0.04704589024186134
0.0001336890272796154,0.047094717621803284
