Time,Voltage
0.0,0.04716796055436134
5.690380930900574e-07,0.047143545001745224
1.1378433555364609e-06,0.0471191331744194
1.7066486179828644e-06,0.0471191331744194
2.2756867110729218e-06,0.0471191331744194
2.8444919735193253e-06,0.047094717621803284
3.4132972359657288e-06,0.046972647309303284
3.982335329055786e-06,0.046752918511629105
4.55114059150219e-06,0.046508777886629105
5.119945853948593e-06,0.046313464641571045
5.6889839470386505e-06,0.046191394329071045
6.257789209485054e-06,0.046191394329071045
6.826827302575111e-06,0.046240221709012985
7.395632565021515e-06,0.046386707574129105
7.964437827467918e-06,0.046606436371803284
8.533475920557976e-06,0.0468749925494194
9.10228118300438e-06,0.04716796055436134
9.671086445450783e-06,0.047460928559303284
1.024012453854084e-05,0.0477294847369194
1.0808929800987244e-05,0.04792479798197746
1.1377735063433647e-05,0.04816893860697746
1.1946773156523705e-05,0.0484619103372097
1.2515578418970108e-05,0.04880370944738388
1.3084383681416512e-05,0.04909667745232582
1.3653421774506569e-05,0.04921874776482582
1.4222227036952972e-05,0.04916992038488388
1.479126513004303e-05,0.04890136420726776
1.5360070392489433e-05,0.04851073771715164
1.5928875654935837e-05,0.0480956993997097
1.6497913748025894e-05,0.04775390028953552
1.7066719010472298e-05,0.04750975966453552
1.76355242729187e-05,0.04741210117936134
1.820456236600876e-05,0.04741210117936134
1.8773367628455162e-05,0.04755858704447746
1.9342172890901566e-05,0.0478515550494194
1.9911210983991623e-05,0.04826659709215164
2.0480016246438026e-05,0.04873046651482582
2.104882150888443e-05,0.04914550483226776
2.1617859601974487e-05,0.04946288838982582
2.218666486442089e-05,0.04970703274011612
2.2755702957510948e-05,0.04978027194738388
2.332450821995735e-05,0.04973144456744194
2.3893313482403755e-05,0.04946288838982582
2.4462351575493813e-05,0.04909667745232582
2.5031156837940216e-05,0.04873046651482582
2.559996210038662e-05,0.04843749478459358
2.6169000193476677e-05,0.04824218153953552
2.673780545592308e-05,0.0482177697122097
2.7306610718369484e-05,0.0483398400247097
2.787564881145954e-05,0.04851073771715164
2.8444454073905945e-05,0.0487060509622097
2.9013492166996002e-05,0.04892577975988388
2.9582297429442406e-05,0.0491943359375
3.015110269188881e-05,0.04946288838982582
3.0720140784978867e-05,0.04978027194738388
3.128894604742527e-05,0.050048828125
3.1857751309871674e-05,0.05026855692267418
3.242678940296173e-05,0.05036621168255806
3.2995594665408134e-05,0.05031738430261612
3.356439992785454e-05,0.05012207105755806
3.4133438020944595e-05,0.04987793043255806
3.4702243283391e-05,0.04960937425494194
3.52710485458374e-05,0.04934081807732582
3.584008663892746e-05,0.0490722618997097
3.640889190137386e-05,0.0488281212747097
3.697792999446392e-05,0.04863280802965164
3.7546735256910324e-05,0.04843749478459358
3.811554051935673e-05,0.0482177697122097
3.8684578612446785e-05,0.04799804091453552
3.925338387489319e-05,0.04782714322209358
3.982218913733959e-05,0.04775390028953552
4.039122723042965e-05,0.04780272766947746
4.096003249287605e-05,0.04792479798197746
4.1528837755322456e-05,0.04807128384709358
4.2097875848412514e-05,0.04812011122703552
4.266668111085892e-05,0.04807128384709358
4.3235719203948975e-05,0.04792479798197746
4.380452446639538e-05,0.04780272766947746
4.437332972884178e-05,0.0477294847369194
4.494236782193184e-05,0.04770507290959358
4.551117308437824e-05,0.0477294847369194
4.6079978346824646e-05,0.04782714322209358
4.66490164399147e-05,0.04794921353459358
4.721782170236111e-05,0.04804686829447746
4.778662696480751e-05,0.0480956993997097
4.835566505789757e-05,0.04802245646715164
4.892447032034397e-05,0.04787597060203552
4.9493275582790375e-05,0.0476074144244194
5.006231367588043e-05,0.047338858246803284
5.0631118938326836e-05,0.0471191331744194
5.120015703141689e-05,0.047070302069187164
5.1768962293863297e-05,0.04719237610697746
5.23377675563097e-05,0.0474853441119194
5.290680564939976e-05,0.04782714322209358
5.347561091184616e-05,0.04812011122703552
5.4044416174292564e-05,0.0483398400247097
5.461345426738262e-05,0.04853515326976776
5.5182259529829025e-05,0.0487060509622097
5.575106479227543e-05,0.0488281212747097
5.6320102885365486e-05,0.04890136420726776
5.688890814781189e-05,0.04890136420726776
5.745771341025829e-05,0.04880370944738388
5.802675150334835e-05,0.04873046651482582
5.8595556765794754e-05,0.04868163913488388
5.916459485888481e-05,0.0487060509622097
5.9733400121331215e-05,0.04880370944738388
6.030220538377762e-05,0.04897460713982582
6.0871243476867676e-05,0.04916992038488388
6.144004873931408e-05,0.04941406100988388
6.200885400176048e-05,0.04963378980755806
6.257789209485054e-05,0.04982910305261612
6.314669735729694e-05,0.0499267578125
6.371550261974335e-05,0.04987793043255806
6.42845407128334e-05,0.0496826171875
6.485334597527981e-05,0.04941406100988388
6.542238406836987e-05,0.04904785007238388
6.599118933081627e-05,0.0487060509622097
6.655999459326267e-05,0.04838866740465164
6.712903268635273e-05,0.0480956993997097
6.769783794879913e-05,0.04782714322209358
6.826664321124554e-05,0.04755858704447746
6.88356813043356e-05,0.0473632737994194
6.9404486566782e-05,0.04716796055436134
6.99732918292284e-05,0.047021474689245224
7.054232992231846e-05,0.046972647309303284
7.111113518476486e-05,0.04704589024186134
7.167994044721127e-05,0.047216787934303284
7.224897854030132e-05,0.047460928559303284
7.281778380274773e-05,0.04768065735697746
7.338682189583778e-05,0.0478515550494194
7.395562715828419e-05,0.04794921353459358
7.452443242073059e-05,0.04807128384709358
7.509347051382065e-05,0.04819335415959358
7.566227577626705e-05,0.04829101264476776
7.623108103871346e-05,0.04838866740465164
7.680011913180351e-05,0.04841308295726776
7.736892439424992e-05,0.04843749478459358
7.793772965669632e-05,0.04841308295726776
7.850676774978638e-05,0.04829101264476776
7.907557301223278e-05,0.04812011122703552
7.964437827467918e-05,0.04792479798197746
8.021341636776924e-05,0.04777831584215164
8.078222163021564e-05,0.04775390028953552
8.13512597233057e-05,0.0478515550494194
8.19200649857521e-05,0.04802245646715164
8.248887024819851e-05,0.0482177697122097
8.305790834128857e-05,0.04838866740465164
8.362671360373497e-05,0.04851073771715164
8.419551886618137e-05,0.04860839620232582
8.476455695927143e-05,0.04860839620232582
8.533336222171783e-05,0.04853515326976776
8.590216748416424e-05,0.04841308295726776
8.64712055772543e-05,0.0482177697122097
8.70400108397007e-05,0.04802245646715164
8.760904893279076e-05,0.0478515550494194
8.817785419523716e-05,0.04768065735697746
8.874665945768356e-05,0.04755858704447746
8.931569755077362e-05,0.0474853441119194
8.988450281322002e-05,0.0474853441119194
9.045330807566643e-05,0.04755858704447746
9.102234616875648e-05,0.04763182997703552
9.159115143120289e-05,0.04765624180436134
9.215995669364929e-05,0.04768065735697746
9.272899478673935e-05,0.04763182997703552
9.329780004918575e-05,0.04758300259709358
9.386660531163216e-05,0.04753417149186134
9.443564340472221e-05,0.04750975966453552
9.500444866716862e-05,0.04750975966453552
9.557348676025867e-05,0.04750975966453552
9.614229202270508e-05,0.04753417149186134
9.671109728515148e-05,0.04753417149186134
9.728013537824154e-05,0.04750975966453552
9.784894064068794e-05,0.047460928559303284
9.841774590313435e-05,0.04741210117936134
9.89867839962244e-05,0.0473632737994194
9.955558925867081e-05,0.0473632737994194
0.00010012439452111721,0.04738768935203552
0.00010069343261420727,0.04738768935203552
0.00010126223787665367,0.04731444641947746
0.00010183127596974373,0.0471191331744194
0.00010240008123219013,0.046850576996803284
0.00010296888649463654,0.046630848199129105
0.00010353792458772659,0.046557605266571045
0.000104106729850173,0.046606436371803284
0.0001046755351126194,0.046777334064245224
0.00010524457320570946,0.046972647309303284
0.00010581337846815586,0.04716796055436134
0.00010638218373060226,0.04731444641947746
0.00010695122182369232,0.04741210117936134
0.00010752002708613873,0.04750975966453552
0.00010808883234858513,0.04763182997703552
0.00010865787044167519,0.04780272766947746
0.00010922667570412159,0.04802245646715164
0.00010979571379721165,0.04819335415959358
0.00011036451905965805,0.04831542447209358
0.00011093332432210445,0.04838866740465164
0.00011150236241519451,0.0483398400247097
0.00011207116767764091,0.04824218153953552
0.00011263997294008732,0.04804686829447746
0.00011320901103317738,0.04780272766947746
0.00011377781629562378,0.04755858704447746
0.00011434662155807018,0.04738768935203552
0.00011491565965116024,0.0473632737994194
0.00011548446491360664,0.04743651673197746
0.00011605327017605305,0.04758300259709358
0.0001166223082691431,0.04775390028953552
0.00011719111353158951,0.04792479798197746
0.00011776015162467957,0.04804686829447746
0.00011832895688712597,0.0480956993997097
0.00011889776214957237,0.04804686829447746
0.00011946680024266243,0.04792479798197746
0.00012003560550510883,0.04777831584215164
0.00012060441076755524,0.04763182997703552
0.0001211734488606453,0.04758300259709358
0.0001217422541230917,0.04758300259709358
0.0001223110593855381,0.04765624180436134
0.00012288009747862816,0.04775390028953552
0.00012344890274107456,0.04787597060203552
0.00012401794083416462,0.04799804091453552
0.00012458674609661102,0.0480956993997097
0.00012515555135905743,0.04816893860697746
0.00012572458945214748,0.04814452677965164
0.0001262933947145939,0.0479736253619194
0.0001268621999770403,0.04763182997703552
0.00012743123807013035,0.04716796055436134
0.00012800004333257675,0.046606436371803284
0.00012856884859502316,0.045971669256687164
0.0001291378866881132,0.045361313968896866
0.00012970669195055962,0.04482420161366463
0.00013027549721300602,0.04440916329622269
0.00013084453530609608,0.04418943449854851
0.00013141334056854248,0.04423826187849045
0.00013198237866163254,0.044482406228780746
0.00013255118392407894,0.04477537423372269
0.00013311998918652534,0.045068345963954926
0.0001336890272796154,0.045239243656396866
