Time,Voltage
0.0,0.04775390028953552
5.699694156646729e-07,0.0478515550494194
1.1380761861801147e-06,0.04787597060203552
1.7080456018447876e-06,0.04782714322209358
2.2761523723602295e-06,0.0477294847369194
2.8442591428756714e-06,0.04758300259709358
3.4142285585403442e-06,0.04731444641947746
3.982335329055786e-06,0.046826161444187164
4.552304744720459e-06,0.046044908463954926
5.120411515235901e-06,0.044970687478780746
5.690380930900574e-06,0.04365232586860657
6.258487701416016e-06,0.04226071760058403
6.8265944719314575e-06,0.04091794043779373
7.39656388759613e-06,0.03967282176017761
7.964670658111572e-06,0.038647428154945374
8.534640073776245e-06,0.037890587002038956
9.102746844291687e-06,0.03742671757936478
9.670853614807129e-06,0.03742671757936478
1.0240823030471802e-05,0.037890587002038956
1.0808929800987244e-05,0.038647428154945374
1.1378899216651917e-05,0.039306607097387314
1.1947005987167358e-05,0.03967282176017761
1.2516975402832031e-05,0.039599575102329254
1.3085082173347473e-05,0.039184536784887314
1.3653188943862915e-05,0.038549769669771194
1.4223158359527588e-05,0.037841759622097015
1.479126513004303e-05,0.03715816140174866
1.5361234545707703e-05,0.0365966372191906
1.5929341316223145e-05,0.0362304262816906
1.6499310731887817e-05,0.03605952858924866
1.706741750240326e-05,0.03603511303663254
1.76355242729187e-05,0.03608394041657448
1.8205493688583374e-05,0.03615718334913254
1.8773600459098816e-05,0.03625483810901642
1.934356987476349e-05,0.0363524965941906
1.991167664527893e-05,0.03654780983924866
2.0479783415794373e-05,0.036840781569480896
2.1049752831459045e-05,0.03718257695436478
2.1617859601974487e-05,0.037475548684597015
2.218782901763916e-05,0.037646446377038956
2.2755935788154602e-05,0.037646446377038956
2.3325905203819275e-05,0.037524376064538956
2.3894011974334717e-05,0.037353478372097015
2.446211874485016e-05,0.037231408059597015
2.503208816051483e-05,0.037206992506980896
2.5600194931030273e-05,0.037231408059597015
2.6170164346694946e-05,0.037280235439538956
2.6738271117210388e-05,0.037255819886922836
2.730824053287506e-05,0.037133749574422836
2.7876347303390503e-05,0.03693843632936478
2.8444454073905945e-05,0.03666988015174866
2.9014423489570618e-05,0.03630366921424866
2.958253026008606e-05,0.03591304272413254
3.0152499675750732e-05,0.03554683178663254
3.0720606446266174e-05,0.03542476147413254
3.1288713216781616e-05,0.03557124361395836
3.185868263244629e-05,0.03593745827674866
3.242678940296173e-05,0.03640132397413254
3.2996758818626404e-05,0.03681636601686478
3.3564865589141846e-05,0.03710933402180672
3.413483500480652e-05,0.037231408059597015
3.470294177532196e-05,0.037280235439538956
3.52710485458374e-05,0.037451133131980896
3.5841017961502075e-05,0.037890587002038956
3.640912473201752e-05,0.038500942289829254
3.697909414768219e-05,0.039135709404945374
3.754720091819763e-05,0.03972164914011955
3.8115307688713074e-05,0.04018551856279373
3.8685277104377747e-05,0.04040524363517761
3.925338387489319e-05,0.04038082808256149
3.982335329055786e-05,0.04013668745756149
4.03914600610733e-05,0.03979489207267761
4.0961429476737976e-05,0.03955075144767761
4.152953624725342e-05,0.039428677409887314
4.209764301776886e-05,0.03933102265000343
4.266761243343353e-05,0.039135709404945374
4.3235719203948975e-05,0.038818325847387314
4.380568861961365e-05,0.038330040872097015
4.437379539012909e-05,0.037792932242155075
4.494376480579376e-05,0.037280235439538956
4.5511871576309204e-05,0.03686519339680672
4.6079978346824646e-05,0.03657222539186478
4.664994776248932e-05,0.03640132397413254
4.721805453300476e-05,0.03637691214680672
4.7788023948669434e-05,0.03640132397413254
4.8356130719184875e-05,0.03645015507936478
4.892423748970032e-05,0.03642573952674866
4.949420690536499e-05,0.03630366921424866
5.006231367588043e-05,0.03613276779651642
5.0632283091545105e-05,0.03591304272413254
5.120038986206055e-05,0.03576655685901642
5.177035927772522e-05,0.03579097241163254
5.233846604824066e-05,0.03605952858924866
5.2906572818756104e-05,0.03642573952674866
5.3476542234420776e-05,0.03669429570436478
5.404464900493622e-05,0.03679195046424866
5.461461842060089e-05,0.036718711256980896
5.518272519111633e-05,0.0364745669066906
5.5752694606781006e-05,0.03615718334913254
5.632080137729645e-05,0.0358642153441906
5.688890814781189e-05,0.0357421413064003
5.745887756347656e-05,0.03579097241163254
5.8026984333992004e-05,0.03593745827674866
5.859695374965668e-05,0.03605952858924866
5.916506052017212e-05,0.03608394041657448
5.973316729068756e-05,0.0359862856566906
6.0303136706352234e-05,0.03588862717151642
6.0871243476867676e-05,0.03596187010407448
6.144121289253235e-05,0.03630366921424866
6.200931966304779e-05,0.03693843632936478
6.257928907871246e-05,0.03767085820436478
6.31473958492279e-05,0.038330040872097015
6.371550261974335e-05,0.038671839982271194
6.428547203540802e-05,0.038720667362213135
6.485357880592346e-05,0.038549769669771194
6.542354822158813e-05,0.038183558732271194
6.599165499210358e-05,0.037792932242155075
6.655976176261902e-05,0.03742671757936478
6.712973117828369e-05,0.037133749574422836
6.769783794879913e-05,0.03691402077674866
6.82678073644638e-05,0.036718711256980896
6.883591413497925e-05,0.03654780983924866
6.940588355064392e-05,0.03640132397413254
6.997399032115936e-05,0.0362304262816906
7.05420970916748e-05,0.03605952858924866
7.111206650733948e-05,0.03588862717151642
7.168017327785492e-05,0.0357421413064003
7.225014269351959e-05,0.03569331392645836
7.281824946403503e-05,0.03583979979157448
7.338821887969971e-05,0.03627925366163254
7.395632565021515e-05,0.037011679261922836
7.452443242073059e-05,0.037988245487213135
7.509440183639526e-05,0.039135709404945374
7.56625086069107e-05,0.04038082808256149
7.623247802257538e-05,0.04160153865814209
7.680058479309082e-05,0.04265134409070015
7.736869156360626e-05,0.04350584000349045
7.793866097927094e-05,0.04421385005116463
7.850676774978638e-05,0.04477537423372269
7.907673716545105e-05,0.045288071036338806
7.964484393596649e-05,0.045727524906396866
8.021481335163116e-05,0.046118151396512985
8.07829201221466e-05,0.046435534954071045
8.135102689266205e-05,0.046655263751745224
8.192099630832672e-05,0.046752918511629105
8.248910307884216e-05,0.046826161444187164
8.305907249450684e-05,0.04692381992936134
8.362717926502228e-05,0.0469970628619194
8.419714868068695e-05,0.0469970628619194
8.476525545120239e-05,0.04692381992936134
8.533336222171783e-05,0.046826161444187164
8.590333163738251e-05,0.046728506684303284
8.647143840789795e-05,0.046606436371803284
8.704140782356262e-05,0.046557605266571045
8.760951459407806e-05,0.046582020819187164
8.81776213645935e-05,0.046655263751745224
8.874759078025818e-05,0.046752918511629105
8.931569755077362e-05,0.046826161444187164
8.98856669664383e-05,0.046850576996803284
9.045377373695374e-05,0.046850576996803284
9.102374315261841e-05,0.046850576996803284
9.159184992313385e-05,0.0468749925494194
9.215995669364929e-05,0.046850576996803284
9.272992610931396e-05,0.046850576996803284
9.32980328798294e-05,0.046899404376745224
9.386800229549408e-05,0.046972647309303284
9.443610906600952e-05,0.047070302069187164
9.500421583652496e-05,0.047143545001745224
9.557418525218964e-05,0.0471191331744194
9.614229202270508e-05,0.0469970628619194
9.671226143836975e-05,0.046777334064245224
9.728036820888519e-05,0.046508777886629105
9.785033762454987e-05,0.046264637261629105
9.841844439506531e-05,0.046118151396512985
9.898655116558075e-05,0.046093739569187164
9.955652058124542e-05,0.046118151396512985
0.00010012462735176086,0.046240221709012985
0.00010069459676742554,0.046411123126745224
0.00010126270353794098,0.046582020819187164
0.00010183267295360565,0.04680174961686134
0.0001024007797241211,0.04704589024186134
0.00010296888649463654,0.0472412034869194
0.00010353885591030121,0.04738768935203552
0.00010410696268081665,0.04743651673197746
0.00010467693209648132,0.0473632737994194
0.00010524503886699677,0.04719237610697746
0.00010581314563751221,0.047021474689245224
0.00010638311505317688,0.0468749925494194
0.00010695122182369232,0.046728506684303284
0.000107521191239357,0.046582020819187164
0.00010808929800987244,0.046411123126745224
0.00010865926742553711,0.046264637261629105
0.00010922737419605255,0.046093739569187164
0.00010979548096656799,0.045898426324129105
0.00011036545038223267,0.045654281973838806
0.00011093355715274811,0.045410141348838806
0.00011150352656841278,0.045166000723838806
0.00011207163333892822,0.044921860098838806
0.00011263974010944366,0.044750962406396866
0.00011320970952510834,0.04465330392122269
0.00011377781629562378,0.04465330392122269
0.00011434778571128845,0.044750962406396866
0.0001149158924818039,0.04501951485872269
0.00011548586189746857,0.045336902141571045
0.00011605396866798401,0.045678697526454926
0.00011662207543849945,0.045922838151454926
0.00011719204485416412,0.046069324016571045
0.00011776015162467957,0.046044908463954926
0.00011833012104034424,0.045898426324129105
0.00011889822781085968,0.045629870146512985
0.00011946819722652435,0.045336902141571045
0.0001200363039970398,0.045068345963954926
0.00012060441076755524,0.044970687478780746
0.00012117438018321991,0.04501951485872269
0.00012174248695373535,0.045239243656396866
0.00012231245636940002,0.045532211661338806
0.00012288056313991547,0.045825183391571045
0.0001234486699104309,0.046142566949129105
0.00012401863932609558,0.046411123126745224
0.00012458674609661102,0.046630848199129105
0.0001251567155122757,0.04680174961686134
0.00012572482228279114,0.046948231756687164
0.0001262947916984558,0.04704589024186134
0.00012686289846897125,0.04704589024186134
0.0001274310052394867,0.046972647309303284
0.00012800097465515137,0.046850576996803284
0.0001285690814256668,0.046728506684303284
0.00012913905084133148,0.046557605266571045
0.00012970715761184692,0.046435534954071045
0.0001302771270275116,0.046337880194187164
0.00013084523379802704,0.046289052814245224
0.00013141334056854248,0.046215809881687164
0.00013198330998420715,0.046118151396512985
0.0001325514167547226,0.046020496636629105
0.00013312138617038727,0.045874010771512985
0.0001336894929409027,0.045703113079071045
