Time,Voltage
0.0,0.0479736253619194
5.685724318027496e-07,0.04777831584215164
1.137610524892807e-06,0.04758300259709358
1.7066486179828644e-06,0.04743651673197746
2.275221049785614e-06,0.04726561903953552
2.8442591428756714e-06,0.047094717621803284
3.4132972359657288e-06,0.046850576996803284
3.981869667768478e-06,0.046630848199129105
4.550907760858536e-06,0.046459950506687164
5.119945853948593e-06,0.046337880194187164
5.688518285751343e-06,0.046264637261629105
6.2575563788414e-06,0.046240221709012985
6.8265944719314575e-06,0.046264637261629105
7.395166903734207e-06,0.046386707574129105
7.964204996824265e-06,0.046533193439245224
8.533243089914322e-06,0.046728506684303284
9.101815521717072e-06,0.046899404376745224
9.670853614807129e-06,0.047070302069187164
1.0239891707897186e-05,0.04716796055436134
1.0808929800987244e-05,0.04719237610697746
1.1377502232789993e-05,0.04716796055436134
1.194654032588005e-05,0.0471191331744194
1.2515578418970108e-05,0.047070302069187164
1.3084150850772858e-05,0.0469970628619194
1.3653188943862915e-05,0.046850576996803284
1.4222227036952972e-05,0.046655263751745224
1.4790799468755722e-05,0.046557605266571045
1.535983756184578e-05,0.046606436371803284
1.5928875654935837e-05,0.046826161444187164
1.6497448086738586e-05,0.047216787934303284
1.7066486179828644e-05,0.04763182997703552
1.76355242729187e-05,0.04802245646715164
1.820409670472145e-05,0.0483398400247097
1.8773134797811508e-05,0.04868163913488388
1.9342172890901566e-05,0.04899902269244194
1.9910745322704315e-05,0.04931640625
2.0479783415794373e-05,0.04958495870232582
2.104882150888443e-05,0.04985351487994194
2.161739394068718e-05,0.050048828125
2.2186432033777237e-05,0.05019531399011612
2.2755470126867294e-05,0.05024414137005806
2.3324042558670044e-05,0.05021972954273224
2.38930806517601e-05,0.05002441629767418
2.446211874485016e-05,0.04970703274011612
2.503069117665291e-05,0.04934081807732582
2.5599729269742966e-05,0.04902343451976776
2.6168767362833023e-05,0.0487060509622097
2.673780545592308e-05,0.04841308295726776
2.730637788772583e-05,0.04824218153953552
2.7875415980815887e-05,0.04814452677965164
2.8444454073905945e-05,0.04816893860697746
2.9013026505708694e-05,0.04819335415959358
2.9582064598798752e-05,0.04824218153953552
3.015110269188881e-05,0.04816893860697746
3.071967512369156e-05,0.04802245646715164
3.1288713216781616e-05,0.0478515550494194
3.1857751309871674e-05,0.04770507290959358
3.242632374167442e-05,0.04768065735697746
3.299536183476448e-05,0.04777831584215164
3.356439992785454e-05,0.04794921353459358
3.413297235965729e-05,0.04816893860697746
3.4702010452747345e-05,0.04836425185203552
3.52710485458374e-05,0.04855956509709358
3.583962097764015e-05,0.04875487834215164
3.640865907073021e-05,0.04890136420726776
3.697769716382027e-05,0.04897460713982582
3.7546269595623016e-05,0.04887694865465164
3.8115307688713074e-05,0.04865722358226776
3.868434578180313e-05,0.04836425185203552
3.925291821360588e-05,0.04812011122703552
3.982195630669594e-05,0.04794921353459358
4.0390994399785995e-05,0.04775390028953552
4.096003249287605e-05,0.04753417149186134
4.15286049246788e-05,0.04726561903953552
4.209764301776886e-05,0.0469970628619194
4.266668111085892e-05,0.046826161444187164
4.323525354266167e-05,0.046728506684303284
4.3804291635751724e-05,0.046752918511629105
4.437332972884178e-05,0.046850576996803284
4.494190216064453e-05,0.0469970628619194
4.551094025373459e-05,0.047216787934303284
4.6079978346824646e-05,0.047460928559303284
4.6648550778627396e-05,0.04763182997703552
4.721758887171745e-05,0.04770507290959358
4.778662696480751e-05,0.04763182997703552
4.835519939661026e-05,0.0474853441119194
4.892423748970032e-05,0.047338858246803284
4.9493275582790375e-05,0.04726561903953552
5.0061848014593124e-05,0.04726561903953552
5.063088610768318e-05,0.0472412034869194
5.119992420077324e-05,0.04716796055436134
5.176849663257599e-05,0.047021474689245224
5.2337534725666046e-05,0.046899404376745224
5.2906572818756104e-05,0.046777334064245224
5.347514525055885e-05,0.046752918511629105
5.404418334364891e-05,0.04680174961686134
5.461322143673897e-05,0.046899404376745224
5.5182259529829025e-05,0.0469970628619194
5.5750831961631775e-05,0.047094717621803284
5.631987005472183e-05,0.04719237610697746
5.688890814781189e-05,0.04731444641947746
5.745748057961464e-05,0.04738768935203552
5.80265186727047e-05,0.04738768935203552
5.8595556765794754e-05,0.04729003086686134
5.9164129197597504e-05,0.04716796055436134
5.973316729068756e-05,0.047094717621803284
6.030220538377762e-05,0.047094717621803284
6.087077781558037e-05,0.04719237610697746
6.143981590867043e-05,0.04729003086686134
6.200885400176048e-05,0.0473632737994194
6.257742643356323e-05,0.04738768935203552
6.314646452665329e-05,0.047338858246803284
6.371550261974335e-05,0.0472412034869194
6.42840750515461e-05,0.0471191331744194
6.485311314463615e-05,0.046899404376745224
6.542215123772621e-05,0.046606436371803284
6.599072366952896e-05,0.046264637261629105
6.655976176261902e-05,0.045947253704071045
6.712879985570908e-05,0.045751940459012985
6.769737228751183e-05,0.045776356011629105
6.826641038060188e-05,0.045971669256687164
6.883544847369194e-05,0.046289052814245224
6.9404486566782e-05,0.04667967930436134
6.997305899858475e-05,0.0471191331744194
7.05420970916748e-05,0.04755858704447746
7.111113518476486e-05,0.0479736253619194
7.167970761656761e-05,0.04831542447209358
7.224874570965767e-05,0.04860839620232582
7.281778380274773e-05,0.0488281212747097
7.338635623455048e-05,0.04892577975988388
7.395539432764053e-05,0.04899902269244194
7.452443242073059e-05,0.04897460713982582
7.509300485253334e-05,0.04892577975988388
7.56620429456234e-05,0.04885253682732582
7.623108103871346e-05,0.0488281212747097
7.67996534705162e-05,0.04885253682732582
7.736869156360626e-05,0.04892577975988388
7.793772965669632e-05,0.04899902269244194
7.850630208849907e-05,0.04902343451976776
7.907534018158913e-05,0.04899902269244194
7.964437827467918e-05,0.0489501915872097
8.021295070648193e-05,0.04885253682732582
8.078198879957199e-05,0.04873046651482582
8.135102689266205e-05,0.0485839806497097
8.19195993244648e-05,0.04838866740465164
8.248863741755486e-05,0.04814452677965164
8.305767551064491e-05,0.04787597060203552
8.362624794244766e-05,0.0476074144244194
8.419528603553772e-05,0.0473632737994194
8.476432412862778e-05,0.047216787934303284
8.533336222171783e-05,0.0471191331744194
8.590193465352058e-05,0.0469970628619194
8.647097274661064e-05,0.046899404376745224
8.70400108397007e-05,0.04680174961686134
8.760858327150345e-05,0.046752918511629105
8.81776213645935e-05,0.046777334064245224
8.874665945768356e-05,0.0468749925494194
8.931523188948631e-05,0.0469970628619194
8.988426998257637e-05,0.0471191331744194
9.045330807566643e-05,0.04719237610697746
9.102188050746918e-05,0.04726561903953552
9.159091860055923e-05,0.04726561903953552
9.215995669364929e-05,0.047216787934303284
9.272852912545204e-05,0.047216787934303284
9.32975672185421e-05,0.0473632737994194
9.386660531163216e-05,0.04765624180436134
9.44351777434349e-05,0.04807128384709358
9.500421583652496e-05,0.04848632588982582
9.557325392961502e-05,0.04887694865465164
9.614182636141777e-05,0.04912109300494194
9.671086445450783e-05,0.04926757514476776
9.727990254759789e-05,0.04926757514476776
9.784847497940063e-05,0.0491943359375
9.841751307249069e-05,0.04899902269244194
9.898655116558075e-05,0.04873046651482582
9.955558925867081e-05,0.0484619103372097
0.00010012416169047356,0.04826659709215164
0.00010069319978356361,0.04816893860697746
0.00010126223787665367,0.04814452677965164
0.00010183081030845642,0.04814452677965164
0.00010239984840154648,0.04816893860697746
0.00010296888649463654,0.04819335415959358
0.00010353745892643929,0.04819335415959358
0.00010410649701952934,0.04816893860697746
0.0001046755351126194,0.04812011122703552
0.00010524410754442215,0.04804686829447746
0.00010581314563751221,0.04799804091453552
0.00010638218373060226,0.04799804091453552
0.00010695075616240501,0.04799804091453552
0.00010751979425549507,0.04802245646715164
0.00010808883234858513,0.04814452677965164
0.00010865740478038788,0.04831542447209358
0.00010922644287347794,0.04841308295726776
0.00010979548096656799,0.04848632588982582
0.00011036405339837074,0.04843749478459358
0.0001109330914914608,0.04838866740465164
0.00011150212958455086,0.04829101264476776
0.00011207070201635361,0.04819335415959358
0.00011263974010944366,0.04799804091453552
0.00011320877820253372,0.04780272766947746
0.00011377781629562378,0.0476074144244194
0.00011434638872742653,0.04743651673197746
0.00011491542682051659,0.047338858246803284
0.00011548446491360664,0.047338858246803284
0.0001160530373454094,0.04741210117936134
0.00011662207543849945,0.04750975966453552
0.00011719111353158951,0.04763182997703552
0.00011775968596339226,0.04775390028953552
0.00011832872405648232,0.04782714322209358
0.00011889776214957237,0.04782714322209358
0.00011946633458137512,0.04770507290959358
0.00012003537267446518,0.0474853441119194
0.00012060441076755524,0.047216787934303284
0.00012117298319935799,0.0469970628619194
0.00012174202129244804,0.04680174961686134
0.0001223110593855381,0.04667967930436134
0.00012287963181734085,0.046582020819187164
0.0001234486699104309,0.046557605266571045
0.00012401770800352097,0.046606436371803284
0.00012458628043532372,0.046704091131687164
0.00012515531852841377,0.046826161444187164
0.00012572435662150383,0.046948231756687164
0.00012629292905330658,0.047070302069187164
0.00012686196714639664,0.04716796055436134
0.0001274310052394867,0.0472412034869194
0.00012800004333257675,0.04726561903953552
0.0001285686157643795,0.04726561903953552
0.00012913765385746956,0.04726561903953552
0.00012970669195055962,0.04726561903953552
0.00013027526438236237,0.04729003086686134
0.00013084430247545242,0.0473632737994194
0.00013141334056854248,0.04743651673197746
0.00013198191300034523,0.04750975966453552
0.0001325509510934353,0.04758300259709358
0.00013311998918652534,0.04770507290959358
0.0001336885616183281,0.0478515550494194
