Time,Voltage
0.0,0.046948231756687164
5.681067705154419e-07,0.04692381992936134
1.1380761861801147e-06,0.046826161444187164
1.7061829566955566e-06,0.046630848199129105
2.2742897272109985e-06,0.046337880194187164
2.8442591428756714e-06,0.045947253704071045
3.4123659133911133e-06,0.045336902141571045
3.982335329055786e-06,0.04445799067616463
4.550442099571228e-06,0.04333494231104851
5.120411515235901e-06,0.04213864728808403
5.688518285751343e-06,0.04108884185552597
6.256625056266785e-06,0.04042965918779373
6.8265944719314575e-06,0.04018551856279373
7.394701242446899e-06,0.04023434594273567
7.964670658111572e-06,0.04035641625523567
8.532777428627014e-06,0.04047848656773567
9.100884199142456e-06,0.04052731394767761
9.670853614807129e-06,0.04045407101511955
1.023896038532257e-05,0.04020993039011955
1.0808929800987244e-05,0.039868131279945374
1.1377036571502686e-05,0.03940426558256149
1.1947005987167358e-05,0.038867153227329254
1.25151127576828e-05,0.038281213492155075
1.3083219528198242e-05,0.037695273756980896
1.3653188943862915e-05,0.03710933402180672
1.4221295714378357e-05,0.03654780983924866
1.479126513004303e-05,0.03605952858924866
1.535937190055847e-05,0.03579097241163254
1.5927478671073914e-05,0.03583979979157448
1.6497448086738586e-05,0.03615718334913254
1.706555485725403e-05,0.03662105277180672
1.76355242729187e-05,0.03710933402180672
1.8203631043434143e-05,0.03754878789186478
1.8773600459098816e-05,0.037939414381980896
1.9341707229614258e-05,0.038207970559597015
1.99098140001297e-05,0.038330040872097015
2.0479783415794373e-05,0.038281213492155075
2.1047890186309814e-05,0.038183558732271194
2.1617859601974487e-05,0.038061484694480896
2.218596637248993e-05,0.037963829934597015
2.2755935788154602e-05,0.037817344069480896
2.3324042558670044e-05,0.037622030824422836
2.3892149329185486e-05,0.037353478372097015
2.446211874485016e-05,0.03703609108924866
2.50302255153656e-05,0.03666988015174866
2.5600194931030273e-05,0.03630366921424866
2.6168301701545715e-05,0.03603511303663254
2.6736408472061157e-05,0.03601069748401642
2.730637788772583e-05,0.03620601072907448
2.7874484658241272e-05,0.03649898245930672
2.8444454073905945e-05,0.036718711256980896
2.9012560844421387e-05,0.036767538636922836
2.958253026008606e-05,0.03666988015174866
3.01506370306015e-05,0.03642573952674866
3.071874380111694e-05,0.0361083559691906
3.1288713216781616e-05,0.03581538796424866
3.185681998729706e-05,0.03564448654651642
3.242678940296173e-05,0.03559565916657448
3.299489617347717e-05,0.03564448654651642
3.3563002943992615e-05,0.03576655685901642
3.413297235965729e-05,0.0359862856566906
3.470107913017273e-05,0.03632808476686478
3.52710485458374e-05,0.03679195046424866
3.5839155316352844e-05,0.037255819886922836
3.640912473201752e-05,0.037646446377038956
3.697723150253296e-05,0.037915002554655075
3.75453382730484e-05,0.038110315799713135
3.8115307688713074e-05,0.038207970559597015
3.8683414459228516e-05,0.038207970559597015
3.925338387489319e-05,0.038110315799713135
3.982149064540863e-05,0.037890587002038956
4.03914600610733e-05,0.03754878789186478
4.0959566831588745e-05,0.03715816140174866
4.152767360210419e-05,0.036767538636922836
4.209764301776886e-05,0.03649898245930672
4.26657497882843e-05,0.03627925366163254
4.3235719203948975e-05,0.03615718334913254
4.3803825974464417e-05,0.03605952858924866
4.437193274497986e-05,0.0359862856566906
4.494190216064453e-05,0.03588862717151642
4.551000893115997e-05,0.0357421413064003
4.6079978346824646e-05,0.03554683178663254
4.664808511734009e-05,0.03530269116163254
4.721805453300476e-05,0.03520503267645836
4.77861613035202e-05,0.03542476147413254
4.8354268074035645e-05,0.03603511303663254
4.892423748970032e-05,0.037011679261922836
4.949234426021576e-05,0.038183558732271194
5.006231367588043e-05,0.039477504789829254
5.0630420446395874e-05,0.04079587012529373
5.120038986206055e-05,0.04201657697558403
5.176849663257599e-05,0.04304197058081627
5.233660340309143e-05,0.04372556507587433
5.2906572818756104e-05,0.04404295235872269
5.3474679589271545e-05,0.04394529387354851
5.404464900493622e-05,0.04345701262354851
5.461275577545166e-05,0.04262693226337433
5.51808625459671e-05,0.04160153865814209
5.5750831961631775e-05,0.04045407101511955
5.631893873214722e-05,0.039355434477329254
5.688890814781189e-05,0.038378871977329254
5.745701491832733e-05,0.037597618997097015
5.8026984333992004e-05,0.037133749574422836
5.8595091104507446e-05,0.03691402077674866
5.916319787502289e-05,0.03691402077674866
5.973316729068756e-05,0.03698726370930672
6.0301274061203e-05,0.03706050664186478
6.0871243476867676e-05,0.037133749574422836
6.143935024738312e-05,0.037133749574422836
6.200745701789856e-05,0.03706050664186478
6.257742643356323e-05,0.03706050664186478
6.314553320407867e-05,0.037255819886922836
6.371550261974335e-05,0.03754878789186478
6.428360939025879e-05,0.037866175174713135
6.485357880592346e-05,0.038061484694480896
6.54216855764389e-05,0.038159143179655075
6.598979234695435e-05,0.038207970559597015
6.655976176261902e-05,0.038281213492155075
6.712786853313446e-05,0.038256801664829254
6.769783794879913e-05,0.038110315799713135
6.826594471931458e-05,0.037963829934597015
6.883591413497925e-05,0.038037072867155075
6.940402090549469e-05,0.038305629044771194
6.997212767601013e-05,0.038598597049713135
7.05420970916748e-05,0.038769498467445374
7.111020386219025e-05,0.038745082914829254
7.168017327785492e-05,0.038549769669771194
7.224828004837036e-05,0.038232386112213135
7.28163868188858e-05,0.037841759622097015
7.338635623455048e-05,0.03742671757936478
7.395446300506592e-05,0.037011679261922836
7.452443242073059e-05,0.03657222539186478
7.509253919124603e-05,0.0361083559691906
7.56625086069107e-05,0.03564448654651642
7.623061537742615e-05,0.03515620529651642
7.679872214794159e-05,0.03471674770116806
7.736869156360626e-05,0.03432612121105194
7.79367983341217e-05,0.03403315320611
7.850676774978638e-05,0.03391108289361
7.907487452030182e-05,0.03400874137878418
7.964484393596649e-05,0.03430170938372612
8.021295070648193e-05,0.03471674770116806
8.078105747699738e-05,0.03505854681134224
8.135102689266205e-05,0.03532710298895836
8.191913366317749e-05,0.03544917330145836
8.248910307884216e-05,0.03547358885407448
8.30572098493576e-05,0.0354980006814003
8.362531661987305e-05,0.03552241623401642
8.419528603553772e-05,0.03559565916657448
8.476339280605316e-05,0.03566890209913254
8.533336222171783e-05,0.03566890209913254
8.590146899223328e-05,0.03557124361395836
8.647143840789795e-05,0.03540034592151642
8.703954517841339e-05,0.03522944450378418
8.760765194892883e-05,0.0352538600564003
8.81776213645935e-05,0.03557124361395836
8.874572813510895e-05,0.03618159890174866
8.931569755077362e-05,0.037084922194480896
8.988380432128906e-05,0.038207970559597015
9.04519110918045e-05,0.039379850029945374
9.102188050746918e-05,0.04052731394767761
9.158998727798462e-05,0.04157712310552597
9.215995669364929e-05,0.04255368933081627
9.272806346416473e-05,0.04340818151831627
9.32980328798294e-05,0.04418943449854851
9.386613965034485e-05,0.044848617166280746
9.443424642086029e-05,0.045410141348838806
9.500421583652496e-05,0.045849598944187164
9.55723226070404e-05,0.046142566949129105
9.614229202270508e-05,0.046337880194187164
9.671039879322052e-05,0.046533193439245224
9.728036820888519e-05,0.046704091131687164
9.784847497940063e-05,0.0468749925494194
9.841658174991608e-05,0.046972647309303284
9.898655116558075e-05,0.0469970628619194
9.955465793609619e-05,0.0469970628619194
0.00010012462735176086,0.047070302069187164
0.0001006927341222763,0.0472412034869194
0.00010126084089279175,0.04741210117936134
0.00010183081030845642,0.04755858704447746
0.00010239891707897186,0.04768065735697746
0.00010296888649463654,0.04777831584215164
0.00010353699326515198,0.04790038615465164
0.00010410696268081665,0.04802245646715164
0.00010467506945133209,0.04812011122703552
0.00010524317622184753,0.04814452677965164
0.00010581314563751221,0.0480956993997097
0.00010638125240802765,0.04804686829447746
0.00010695122182369232,0.04804686829447746
0.00010751932859420776,0.04804686829447746
0.00010808929800987244,0.04807128384709358
0.00010865740478038788,0.04804686829447746
0.00010922551155090332,0.04807128384709358
0.00010979548096656799,0.04812011122703552
0.00011036358773708344,0.04824218153953552
0.00011093355715274811,0.04841308295726776
0.00011150166392326355,0.04865722358226776
0.00011206977069377899,0.04887694865465164
0.00011263974010944366,0.0489501915872097
0.0001132078468799591,0.04890136420726776
0.00011377781629562378,0.04868163913488388
0.00011434592306613922,0.04836425185203552
0.0001149158924818039,0.04799804091453552
0.00011548399925231934,0.04755858704447746
0.00011605210602283478,0.047094717621803284
0.00011662207543849945,0.04667967930436134
0.00011719018220901489,0.046337880194187164
0.00011776015162467957,0.046069324016571045
0.00011832825839519501,0.045922838151454926
0.00011889636516571045,0.045898426324129105
0.00011946633458137512,0.045947253704071045
0.00012003444135189056,0.046118151396512985
0.00012060441076755524,0.046337880194187164
0.00012117251753807068,0.046630848199129105
0.00012174248695373535,0.04692381992936134
0.0001223105937242508,0.04719237610697746
0.00012287870049476624,0.04743651673197746
0.0001234486699104309,0.04770507290959358
0.00012401677668094635,0.0479736253619194
0.00012458674609661102,0.04826659709215164
0.00012515485286712646,0.04848632588982582
0.00012572482228279114,0.04865722358226776
0.00012629292905330658,0.04868163913488388
0.00012686103582382202,0.0485839806497097
0.0001274310052394867,0.04836425185203552
0.00012799911201000214,0.04812011122703552
0.0001285690814256668,0.04790038615465164
0.00012913718819618225,0.04775390028953552
0.0001297052949666977,0.04770507290959358
0.00013027526438236237,0.0477294847369194
0.0001308433711528778,0.0478515550494194
0.00013141334056854248,0.04804686829447746
0.00013198144733905792,0.04826659709215164
0.0001325514167547226,0.04843749478459358
0.00013311952352523804,0.04851073771715164
0.00013368763029575348,0.0484619103372097
