Time,Voltage
0.0,0.045654281973838806
5.662441253662109e-07,0.045556627213954926
1.1324882507324219e-06,0.045483384281396866
1.7061829566955566e-06,0.045410141348838806
2.2724270820617676e-06,0.045336902141571045
2.8386712074279785e-06,0.045117173343896866
3.4123659133911133e-06,0.04458006098866463
3.978610038757324e-06,0.04374998062849045
4.544854164123535e-06,0.04289548471570015
5.11854887008667e-06,0.04218747466802597
5.684792995452881e-06,0.04172360897064209
6.258487701416016e-06,0.04147946834564209
6.8247318267822266e-06,0.04135739430785179
7.3909759521484375e-06,0.04118649661540985
7.964670658111572e-06,0.04082028567790985
8.530914783477783e-06,0.04025875777006149
9.097158908843994e-06,0.039599575102329254
9.670853614807129e-06,0.038964807987213135
1.023709774017334e-05,0.038354456424713135
1.080334186553955e-05,0.037719689309597015
1.1377036571502686e-05,0.037084922194480896
1.1943280696868896e-05,0.03649898245930672
1.2509524822235107e-05,0.03596187010407448
1.3083219528198242e-05,0.03542476147413254
1.3649463653564453e-05,0.03491206467151642
1.4215707778930664e-05,0.03447260707616806
1.4789402484893799e-05,0.03422846645116806
1.535564661026001e-05,0.0342772975564003
1.5929341316223145e-05,0.03454585000872612
1.6495585441589355e-05,0.03483881801366806
1.7061829566955566e-05,0.03508296236395836
1.76355242729187e-05,0.03530269116163254
1.8201768398284912e-05,0.03554683178663254
1.8768012523651123e-05,0.03571772947907448
1.9341707229614258e-05,0.03579097241163254
1.990795135498047e-05,0.03571772947907448
2.047419548034668e-05,0.03547358885407448
2.1047890186309814e-05,0.03510737419128418
2.1614134311676025e-05,0.03478999063372612
2.2180378437042236e-05,0.03457026556134224
2.275407314300537e-05,0.03454585000872612
2.3320317268371582e-05,0.0346435084939003
2.3894011974334717e-05,0.03481440618634224
2.4460256099700928e-05,0.03498530387878418
2.502650022506714e-05,0.03518061712384224
2.5600194931030273e-05,0.03557124361395836
2.6166439056396484e-05,0.03625483810901642
2.6732683181762695e-05,0.037206992506980896
2.730637788772583e-05,0.038305629044771194
2.787262201309204e-05,0.03945309296250343
2.8438866138458252e-05,0.04045407101511955
2.9012560844421387e-05,0.04121091216802597
2.9578804969787598e-05,0.04160153865814209
3.014504909515381e-05,0.04165036603808403
3.071874380111694e-05,0.04138180986046791
3.1284987926483154e-05,0.04082028567790985
3.1851232051849365e-05,0.04003903269767761
3.24249267578125e-05,0.03920895233750343
3.299117088317871e-05,0.038476526737213135
3.3564865589141846e-05,0.037915002554655075
3.413110971450806e-05,0.037622030824422836
3.469735383987427e-05,0.037646446377038956
3.52710485458374e-05,0.038012657314538956
3.583729267120361e-05,0.038696255534887314
3.6403536796569824e-05,0.03957516327500343
3.697723150253296e-05,0.04050289839506149
3.754347562789917e-05,0.04140622168779373
3.810971975326538e-05,0.04221189022064209
3.8683414459228516e-05,0.04282224178314209
3.9249658584594727e-05,0.04323728382587433
3.981590270996094e-05,0.04355466738343239
4.038959741592407e-05,0.04370115324854851
4.095584154129028e-05,0.04379880800843239
4.152953624725342e-05,0.04387205094099045
4.209578037261963e-05,0.04389646649360657
4.266202449798584e-05,0.04392088204622269
4.3235719203948975e-05,0.04396970942616463
4.3801963329315186e-05,0.04401853680610657
4.4368207454681396e-05,0.04411619156599045
4.494190216064453e-05,0.04421385005116463
4.550814628601074e-05,0.04426267743110657
4.607439041137695e-05,0.04431150481104851
4.664808511734009e-05,0.044360335916280746
4.72143292427063e-05,0.044433578848838806
4.778057336807251e-05,0.04458006098866463
4.8354268074035645e-05,0.044799789786338806
4.8920512199401855e-05,0.045068345963954926
4.9486756324768066e-05,0.045336902141571045
5.00604510307312e-05,0.045605454593896866
5.062669515609741e-05,0.045874010771512985
5.120038986206055e-05,0.046142566949129105
5.176663398742676e-05,0.046337880194187164
5.233287811279297e-05,0.046459950506687164
5.2906572818756104e-05,0.046435534954071045
5.3472816944122314e-05,0.046313464641571045
5.4039061069488525e-05,0.046142566949129105
5.461275577545166e-05,0.045971669256687164
5.517899990081787e-05,0.045825183391571045
5.574524402618408e-05,0.045703113079071045
5.631893873214722e-05,0.045629870146512985
5.688518285751343e-05,0.045629870146512985
5.745142698287964e-05,0.045654281973838806
5.8025121688842773e-05,0.045654281973838806
5.8591365814208984e-05,0.045605454593896866
5.916506052017212e-05,0.045434556901454926
5.973130464553833e-05,0.045166000723838806
6.029754877090454e-05,0.044921860098838806
6.0871243476867676e-05,0.04470213130116463
6.143748760223389e-05,0.04453123360872269
6.20037317276001e-05,0.044433578848838806
6.257742643356323e-05,0.044433578848838806
6.314367055892944e-05,0.04453123360872269
6.370991468429565e-05,0.04477537423372269
6.428360939025879e-05,0.045092757791280746
6.4849853515625e-05,0.045458972454071045
6.541609764099121e-05,0.045800767838954926
6.598979234695435e-05,0.046069324016571045
6.655603647232056e-05,0.046264637261629105
6.712228059768677e-05,0.046435534954071045
6.76959753036499e-05,0.046582020819187164
6.826221942901611e-05,0.046728506684303284
6.883591413497925e-05,0.04680174961686134
6.940215826034546e-05,0.046850576996803284
6.996840238571167e-05,0.0468749925494194
7.05420970916748e-05,0.0468749925494194
7.110834121704102e-05,0.046850576996803284
7.167458534240723e-05,0.046777334064245224
7.224828004837036e-05,0.04667967930436134
7.281452417373657e-05,0.046533193439245224
7.338076829910278e-05,0.046386707574129105
7.395446300506592e-05,0.046289052814245224
7.452070713043213e-05,0.046166982501745224
7.508695125579834e-05,0.046093739569187164
7.566064596176147e-05,0.046020496636629105
7.622689008712769e-05,0.046020496636629105
7.680058479309082e-05,0.046069324016571045
7.736682891845703e-05,0.046166982501745224
7.793307304382324e-05,0.046386707574129105
7.850676774978638e-05,0.046606436371803284
7.907301187515259e-05,0.046826161444187164
7.96392560005188e-05,0.046948231756687164
8.021295070648193e-05,0.046972647309303284
8.077919483184814e-05,0.046826161444187164
8.134543895721436e-05,0.046606436371803284
8.191913366317749e-05,0.046337880194187164
8.24853777885437e-05,0.046142566949129105
8.305162191390991e-05,0.045971669256687164
8.362531661987305e-05,0.045849598944187164
8.419156074523926e-05,0.045727524906396866
8.475780487060547e-05,0.045605454593896866
8.53314995765686e-05,0.045532211661338806
8.589774370193481e-05,0.045507799834012985
8.647143840789795e-05,0.045556627213954926
8.703768253326416e-05,0.045678697526454926
8.760392665863037e-05,0.045849598944187164
8.81776213645935e-05,0.046044908463954926
8.874386548995972e-05,0.046191394329071045
8.931010961532593e-05,0.046289052814245224
8.988380432128906e-05,0.046337880194187164
9.045004844665527e-05,0.046435534954071045
9.101629257202148e-05,0.046508777886629105
9.158998727798462e-05,0.046582020819187164
9.215623140335083e-05,0.046606436371803284
9.272247552871704e-05,0.046606436371803284
9.329617023468018e-05,0.046606436371803284
9.386241436004639e-05,0.046582020819187164
9.443610906600952e-05,0.046508777886629105
9.500235319137573e-05,0.046435534954071045
9.556859731674194e-05,0.046362295746803284
9.614229202270508e-05,0.046337880194187164
9.670853614807129e-05,0.046386707574129105
9.72747802734375e-05,0.046459950506687164
9.784847497940063e-05,0.046582020819187164
9.841471910476685e-05,0.046752918511629105
9.898096323013306e-05,0.04692381992936134
9.955465793609619e-05,0.047021474689245224
0.0001001209020614624,0.04704589024186134
0.00010068714618682861,0.0469970628619194
0.00010126084089279175,0.0468749925494194
0.00010182708501815796,0.04667967930436134
0.0001024007797241211,0.046411123126745224
0.0001029670238494873,0.046118151396512985
0.00010353326797485352,0.045849598944187164
0.00010410696268081665,0.045629870146512985
0.00010467320680618286,0.045458972454071045
0.00010523945093154907,0.045312486588954926
0.00010581314563751221,0.045214828103780746
0.00010637938976287842,0.045117173343896866
0.00010694563388824463,0.04501951485872269
0.00010751932859420776,0.044946275651454926
0.00010808557271957397,0.044873032718896866
0.00010865181684494019,0.044873032718896866
0.00010922551155090332,0.04489744454622269
0.00010979175567626953,0.044970687478780746
0.00011035799980163574,0.045068345963954926
0.00011093169450759888,0.045166000723838806
0.00011149793863296509,0.045239243656396866
0.00011207163333892822,0.045336902141571045
0.00011263787746429443,0.045434556901454926
0.00011320412158966064,0.045556627213954926
0.00011377781629562378,0.045703113079071045
0.00011434406042098999,0.045849598944187164
0.0001149103045463562,0.046020496636629105
0.00011548399925231934,0.046166982501745224
0.00011605024337768555,0.046313464641571045
0.00011661648750305176,0.046435534954071045
0.00011719018220901489,0.046557605266571045
0.0001177564263343811,0.04667967930436134
0.00011832267045974731,0.046826161444187164
0.00011889636516571045,0.046899404376745224
0.00011946260929107666,0.046972647309303284
0.0001200363039970398,0.047094717621803284
0.000120602548122406,0.04719237610697746
0.00012116879224777222,0.04731444641947746
0.00012174248695373535,0.04741210117936134
0.00012230873107910156,0.047460928559303284
0.00012287497520446777,0.04743651673197746
0.0001234486699104309,0.04729003086686134
0.00012401491403579712,0.047070302069187164
0.00012458115816116333,0.046850576996803284
0.00012515485286712646,0.046655263751745224
0.00012572109699249268,0.046533193439245224
0.0001262873411178589,0.046533193439245224
0.00012686103582382202,0.046606436371803284
0.00012742727994918823,0.046752918511629105
0.00012799352407455444,0.046899404376745224
0.00012856721878051758,0.047021474689245224
0.0001291334629058838,0.04704589024186134
0.00012970715761184692,0.046948231756687164
0.00013027340173721313,0.046826161444187164
0.00013083964586257935,0.046752918511629105
0.00013141334056854248,0.046752918511629105
0.0001319795846939087,0.04680174961686134
0.0001325458288192749,0.046899404376745224
0.00013311952352523804,0.0469970628619194
0.00013368576765060425,0.047070302069187164
