Time,Voltage
0.0,0.045312486588954926
5.690380930900574e-07,0.045190416276454926
1.137610524892807e-06,0.045092757791280746
1.7066486179828644e-06,0.045092757791280746
2.2756867110729218e-06,0.045068345963954926
2.8442591428756714e-06,0.044995103031396866
3.4132972359657288e-06,0.044799789786338806
3.982335329055786e-06,0.04440916329622269
4.5513734221458435e-06,0.04382322356104851
5.119945853948593e-06,0.04301755875349045
5.6889839470386505e-06,0.04206540435552597
6.258022040128708e-06,0.04101559519767761
6.8265944719314575e-06,0.04001461714506149
7.395632565021515e-06,0.039086878299713135
7.964670658111572e-06,0.038354456424713135
8.533243089914322e-06,0.037866175174713135
9.10228118300438e-06,0.037573203444480896
9.671319276094437e-06,0.037377890199422836
1.0239891707897186e-05,0.03718257695436478
1.0808929800987244e-05,0.036962851881980896
1.1377967894077301e-05,0.03674312308430672
1.194654032588005e-05,0.03652339428663254
1.2515578418970108e-05,0.0363524965941906
1.3084616512060165e-05,0.03620601072907448
1.3653188943862915e-05,0.03625483810901642
1.4222227036952972e-05,0.03657222539186478
1.479126513004303e-05,0.037084922194480896
1.535983756184578e-05,0.037695273756980896
1.5928875654935837e-05,0.038232386112213135
1.6497913748025894e-05,0.038574181497097015
1.7066486179828644e-05,0.038696255534887314
1.76355242729187e-05,0.038598597049713135
1.820456236600876e-05,0.038403283804655075
1.8773600459098816e-05,0.038232386112213135
1.9342172890901566e-05,0.038232386112213135
1.9911210983991623e-05,0.038281213492155075
2.048024907708168e-05,0.038354456424713135
2.104882150888443e-05,0.038354456424713135
2.1617859601974487e-05,0.038281213492155075
2.2186897695064545e-05,0.038134731352329254
2.2755470126867294e-05,0.037939414381980896
2.332450821995735e-05,0.037817344069480896
2.389354631304741e-05,0.037792932242155075
2.446211874485016e-05,0.037866175174713135
2.5031156837940216e-05,0.038037072867155075
2.5600194931030273e-05,0.038207970559597015
2.6168767362833023e-05,0.038232386112213135
2.673780545592308e-05,0.038085900247097015
2.7306843549013138e-05,0.037817344069480896
2.7875415980815887e-05,0.037499960511922836
2.8444454073905945e-05,0.037231408059597015
2.9013492166996002e-05,0.03698726370930672
2.9582064598798752e-05,0.03681636601686478
3.015110269188881e-05,0.036718711256980896
3.0720140784978867e-05,0.0365966372191906
3.1288713216781616e-05,0.0364745669066906
3.1857751309871674e-05,0.03632808476686478
3.242678940296173e-05,0.03615718334913254
3.299582749605179e-05,0.03596187010407448
3.356439992785454e-05,0.03579097241163254
3.4133438020944595e-05,0.03569331392645836
3.470247611403465e-05,0.03579097241163254
3.52710485458374e-05,0.0362304262816906
3.584008663892746e-05,0.03693843632936478
3.640912473201752e-05,0.03767085820436478
3.697769716382027e-05,0.038305629044771194
3.7546735256910324e-05,0.038696255534887314
3.811577335000038e-05,0.038769498467445374
3.868434578180313e-05,0.038623012602329254
3.925338387489319e-05,0.038305629044771194
3.9822421967983246e-05,0.037890587002038956
4.0390994399785995e-05,0.03742671757936478
4.096003249287605e-05,0.03693843632936478
4.152907058596611e-05,0.03645015507936478
4.209764301776886e-05,0.03605952858924866
4.266668111085892e-05,0.03581538796424866
4.3235719203948975e-05,0.03569331392645836
4.3804291635751724e-05,0.03569331392645836
4.437332972884178e-05,0.03571772947907448
4.494236782193184e-05,0.03576655685901642
4.551094025373459e-05,0.03591304272413254
4.6079978346824646e-05,0.03620601072907448
4.66490164399147e-05,0.0365966372191906
4.721805453300476e-05,0.03693843632936478
4.778662696480751e-05,0.03718257695436478
4.835566505789757e-05,0.037280235439538956
4.8924703150987625e-05,0.037353478372097015
4.9493275582790375e-05,0.037402305752038956
5.006231367588043e-05,0.037499960511922836
5.063135176897049e-05,0.037646446377038956
5.119992420077324e-05,0.037866175174713135
5.1768962293863297e-05,0.038183558732271194
5.2338000386953354e-05,0.038671839982271194
5.2906572818756104e-05,0.03933102265000343
5.347561091184616e-05,0.04011227563023567
5.404464900493622e-05,0.04091794043779373
5.461322143673897e-05,0.04165036603808403
5.5182259529829025e-05,0.04235837608575821
5.575129762291908e-05,0.04301755875349045
5.631987005472183e-05,0.04365232586860657
5.688890814781189e-05,0.04426267743110657
5.745794624090195e-05,0.044873032718896866
5.80265186727047e-05,0.045458972454071045
5.8595556765794754e-05,0.046020496636629105
5.916459485888481e-05,0.046533193439245224
5.973316729068756e-05,0.04692381992936134
6.030220538377762e-05,0.047216787934303284
6.0871243476867676e-05,0.04743651673197746
6.143981590867043e-05,0.04755858704447746
6.200885400176048e-05,0.0476074144244194
6.257789209485054e-05,0.04763182997703552
6.31469301879406e-05,0.04768065735697746
6.371550261974335e-05,0.04775390028953552
6.42845407128334e-05,0.0478515550494194
6.485357880592346e-05,0.0479736253619194
6.542215123772621e-05,0.0480956993997097
6.599118933081627e-05,0.04816893860697746
6.656022742390633e-05,0.04816893860697746
6.712879985570908e-05,0.04812011122703552
6.769783794879913e-05,0.0479736253619194
6.826687604188919e-05,0.04777831584215164
6.883544847369194e-05,0.04758300259709358
6.9404486566782e-05,0.04741210117936134
6.997352465987206e-05,0.04731444641947746
7.05420970916748e-05,0.04731444641947746
7.111113518476486e-05,0.04743651673197746
7.168017327785492e-05,0.04763182997703552
7.224874570965767e-05,0.04782714322209358
7.281778380274773e-05,0.04802245646715164
7.338682189583778e-05,0.04812011122703552
7.395539432764053e-05,0.04814452677965164
7.452443242073059e-05,0.04807128384709358
7.509347051382065e-05,0.04787597060203552
7.56620429456234e-05,0.04755858704447746
7.623108103871346e-05,0.04716796055436134
7.680011913180351e-05,0.04680174961686134
7.736915722489357e-05,0.046484366059303284
7.793772965669632e-05,0.046264637261629105
7.850676774978638e-05,0.046142566949129105
7.907580584287643e-05,0.046118151396512985
7.964437827467918e-05,0.046166982501745224
8.021341636776924e-05,0.046240221709012985
8.07824544608593e-05,0.046337880194187164
8.135102689266205e-05,0.046459950506687164
8.19200649857521e-05,0.046630848199129105
8.248910307884216e-05,0.04680174961686134
8.305767551064491e-05,0.046948231756687164
8.362671360373497e-05,0.047070302069187164
8.419575169682503e-05,0.0472412034869194
8.476432412862778e-05,0.04743651673197746
8.533336222171783e-05,0.04758300259709358
8.590240031480789e-05,0.04768065735697746
8.647097274661064e-05,0.04768065735697746
8.70400108397007e-05,0.0476074144244194
8.760904893279076e-05,0.04743651673197746
8.81776213645935e-05,0.04726561903953552
8.874665945768356e-05,0.0471191331744194
8.931569755077362e-05,0.0469970628619194
8.988426998257637e-05,0.046948231756687164
9.045330807566643e-05,0.0469970628619194
9.102234616875648e-05,0.04719237610697746
9.159138426184654e-05,0.04741210117936134
9.215995669364929e-05,0.04763182997703552
9.272899478673935e-05,0.04775390028953552
9.32980328798294e-05,0.04777831584215164
9.386660531163216e-05,0.04775390028953552
9.443564340472221e-05,0.04765624180436134
9.500468149781227e-05,0.04750975966453552
9.557325392961502e-05,0.047338858246803284
9.614229202270508e-05,0.0471191331744194
9.671133011579514e-05,0.04692381992936134
9.727990254759789e-05,0.046777334064245224
9.784894064068794e-05,0.04680174961686134
9.8417978733778e-05,0.04692381992936134
9.898655116558075e-05,0.04704589024186134
9.955558925867081e-05,0.0471191331744194
0.00010012462735176086,0.04716796055436134
0.00010069319978356361,0.047143545001745224
0.00010126223787665367,0.0471191331744194
0.00010183127596974373,0.047021474689245224
0.00010239984840154648,0.046899404376745224
0.00010296888649463654,0.046728506684303284
0.00010353792458772659,0.046606436371803284
0.00010410649701952934,0.046533193439245224
0.0001046755351126194,0.046533193439245224
0.00010524457320570946,0.046630848199129105
0.00010581361129879951,0.04680174961686134
0.00010638218373060226,0.0469970628619194
0.00010695122182369232,0.0472412034869194
0.00010752025991678238,0.04743651673197746
0.00010808883234858513,0.04765624180436134
0.00010865787044167519,0.04777831584215164
0.00010922690853476524,0.04782714322209358
0.00010979548096656799,0.04777831584215164
0.00011036451905965805,0.0476074144244194
0.00011093355715274811,0.04741210117936134
0.00011150212958455086,0.04726561903953552
0.00011207116767764091,0.04716796055436134
0.00011264020577073097,0.047143545001745224
0.00011320877820253372,0.0471191331744194
0.00011377781629562378,0.0471191331744194
0.00011434685438871384,0.0471191331744194
0.00011491542682051659,0.0471191331744194
0.00011548446491360664,0.04719237610697746
0.0001160535030066967,0.04726561903953552
0.00011662207543849945,0.04729003086686134
0.00011719111353158951,0.0472412034869194
0.00011776015162467957,0.04719237610697746
0.00011832872405648232,0.04719237610697746
0.00011889776214957237,0.04726561903953552
0.00011946680024266243,0.047338858246803284
0.00012003537267446518,0.04741210117936134
0.00012060441076755524,0.04743651673197746
0.0001211734488606453,0.0474853441119194
0.00012174248695373535,0.04758300259709358
0.0001223110593855381,0.04770507290959358
0.00012288009747862816,0.0478515550494194
0.00012344913557171822,0.04799804091453552
0.00012401770800352097,0.0480956993997097
0.00012458674609661102,0.04814452677965164
0.00012515578418970108,0.0480956993997097
0.00012572435662150383,0.04792479798197746
0.0001262933947145939,0.04765624180436134
0.00012686243280768394,0.04731444641947746
0.0001274310052394867,0.047021474689245224
0.00012800004333257675,0.04680174961686134
0.0001285690814256668,0.04667967930436134
0.00012913765385746956,0.046728506684303284
0.00012970669195055962,0.046899404376745224
0.00013027573004364967,0.04719237610697746
0.00013084430247545242,0.04755858704447746
0.00013141334056854248,0.04787597060203552
0.00013198237866163254,0.0480956993997097
0.0001325509510934353,0.04816893860697746
0.00013311998918652534,0.04804686829447746
0.0001336890272796154,0.0478515550494194
