Time,Voltage
0.0,0.045214828103780746
5.736947059631348e-07,0.045239243656396866
1.1399388313293457e-06,0.045263659209012985
1.7061829566955566e-06,0.045239243656396866
2.2798776626586914e-06,0.04514158517122269
2.8461217880249023e-06,0.044946275651454926
3.4123659133911133e-06,0.044555649161338806
3.986060619354248e-06,0.04392088204622269
4.552304744720459e-06,0.04328611120581627
5.11854887008667e-06,0.04274900257587433
5.692243576049805e-06,0.04230954498052597
6.258487701416016e-06,0.04182126373052597
6.8247318267822266e-06,0.04113766923546791
7.398426532745361e-06,0.04018551856279373
7.964670658111572e-06,0.039135709404945374
8.538365364074707e-06,0.038061484694480896
9.104609489440918e-06,0.037206992506980896
9.670853614807129e-06,0.0365966372191906
1.0244548320770264e-05,0.03620601072907448
1.0810792446136475e-05,0.03593745827674866
1.1377036571502686e-05,0.03571772947907448
1.195073127746582e-05,0.03544917330145836
1.2516975402832031e-05,0.03515620529651642
1.3083219528198242e-05,0.03486323356628418
1.3656914234161377e-05,0.03457026556134224
1.4223158359527588e-05,0.03435053676366806
1.4789402484893799e-05,0.03432612121105194
1.5363097190856934e-05,0.03457026556134224
1.5929341316223145e-05,0.0350097194314003
1.6495585441589355e-05,0.03542476147413254
1.706928014755249e-05,0.0356200709939003
1.76355242729187e-05,0.03566890209913254
1.8209218978881836e-05,0.03566890209913254
1.8775463104248047e-05,0.03571772947907448
1.9341707229614258e-05,0.03588862717151642
1.9915401935577393e-05,0.03618159890174866
2.0481646060943604e-05,0.03649898245930672
2.1047890186309814e-05,0.036718711256980896
2.162158489227295e-05,0.03674312308430672
2.218782901763916e-05,0.03652339428663254
2.275407314300537e-05,0.03608394041657448
2.3327767848968506e-05,0.03559565916657448
2.3894011974334717e-05,0.03505854681134224
2.4460256099700928e-05,0.03459467738866806
2.5033950805664062e-05,0.03435053676366806
2.5600194931030273e-05,0.03449702262878418
2.6173889636993408e-05,0.0351317897439003
2.674013376235962e-05,0.03603511303663254
2.730637788772583e-05,0.037011679261922836
2.7880072593688965e-05,0.037792932242155075
2.8446316719055176e-05,0.038354456424713135
2.9012560844421387e-05,0.038671839982271194
2.958625555038452e-05,0.038720667362213135
3.0152499675750732e-05,0.038549769669771194
3.071874380111694e-05,0.038207970559597015
3.129243850708008e-05,0.037768516689538956
3.185868263244629e-05,0.03730464726686478
3.24249267578125e-05,0.036840781569480896
3.2998621463775635e-05,0.03637691214680672
3.3564865589141846e-05,0.03593745827674866
3.413110971450806e-05,0.03552241623401642
3.470480442047119e-05,0.03522944450378418
3.52710485458374e-05,0.03508296236395836
3.584474325180054e-05,0.0351317897439003
3.641098737716675e-05,0.03532710298895836
3.697723150253296e-05,0.03557124361395836
3.7550926208496094e-05,0.03579097241163254
3.8117170333862305e-05,0.03593745827674866
3.8683414459228516e-05,0.03601069748401642
3.925710916519165e-05,0.03605952858924866
3.982335329055786e-05,0.0361083559691906
4.038959741592407e-05,0.03615718334913254
4.096329212188721e-05,0.0362304262816906
4.152953624725342e-05,0.03627925366163254
4.209578037261963e-05,0.0362304262816906
4.2669475078582764e-05,0.03613276779651642
4.3235719203948975e-05,0.0359862856566906
4.380941390991211e-05,0.03581538796424866
4.437565803527832e-05,0.0356200709939003
4.494190216064453e-05,0.03547358885407448
4.5515596866607666e-05,0.03535151854157448
4.608184099197388e-05,0.0353759303689003
4.664808511734009e-05,0.0356200709939003
4.722177982330322e-05,0.0362304262816906
4.7788023948669434e-05,0.037133749574422836
4.8354268074035645e-05,0.038256801664829254
4.892796277999878e-05,0.039477504789829254
4.949420690536499e-05,0.04072262719273567
5.00604510307312e-05,0.04194333404302597
5.0634145736694336e-05,0.04301755875349045
5.120038986206055e-05,0.04389646649360657
5.176663398742676e-05,0.04458006098866463
5.234032869338989e-05,0.04501951485872269
5.2906572818756104e-05,0.045288071036338806
5.348026752471924e-05,0.045410141348838806
5.404651165008545e-05,0.045483384281396866
5.461275577545166e-05,0.045483384281396866
5.5186450481414795e-05,0.045434556901454926
5.5752694606781006e-05,0.045288071036338806
5.631893873214722e-05,0.04514158517122269
5.689263343811035e-05,0.045117173343896866
5.745887756347656e-05,0.04514158517122269
5.8025121688842773e-05,0.045263659209012985
5.859881639480591e-05,0.045385729521512985
5.916506052017212e-05,0.045458972454071045
5.973130464553833e-05,0.045507799834012985
6.0304999351501465e-05,0.045532211661338806
6.0871243476867676e-05,0.045581042766571045
6.144493818283081e-05,0.045581042766571045
6.201118230819702e-05,0.045532211661338806
6.257742643356323e-05,0.045483384281396866
6.315112113952637e-05,0.045385729521512985
6.371736526489258e-05,0.045288071036338806
6.428360939025879e-05,0.045166000723838806
6.485730409622192e-05,0.045043930411338806
6.542354822158813e-05,0.044946275651454926
6.598979234695435e-05,0.044873032718896866
6.656348705291748e-05,0.044921860098838806
6.712973117828369e-05,0.045190416276454926
6.76959753036499e-05,0.045727524906396866
6.826967000961304e-05,0.046411123126745224
6.883591413497925e-05,0.04704589024186134
6.940215826034546e-05,0.04750975966453552
6.99758529663086e-05,0.0477294847369194
7.05420970916748e-05,0.04775390028953552
7.111579179763794e-05,0.0476074144244194
7.168203592300415e-05,0.04738768935203552
7.224828004837036e-05,0.0471191331744194
7.28219747543335e-05,0.046752918511629105
7.338821887969971e-05,0.046362295746803284
7.395446300506592e-05,0.046020496636629105
7.452815771102905e-05,0.045727524906396866
7.509440183639526e-05,0.045532211661338806
7.566064596176147e-05,0.045458972454071045
7.623434066772461e-05,0.045410141348838806
7.680058479309082e-05,0.045410141348838806
7.736682891845703e-05,0.045483384281396866
7.794052362442017e-05,0.045654281973838806
7.850676774978638e-05,0.045874010771512985
7.908046245574951e-05,0.045971669256687164
7.964670658111572e-05,0.045971669256687164
8.021295070648193e-05,0.045874010771512985
8.078664541244507e-05,0.045776356011629105
8.135288953781128e-05,0.045776356011629105
8.191913366317749e-05,0.045898426324129105
8.249282836914062e-05,0.046142566949129105
8.305907249450684e-05,0.046411123126745224
8.362531661987305e-05,0.046655263751745224
8.419901132583618e-05,0.0468749925494194
8.476525545120239e-05,0.047070302069187164
8.53314995765686e-05,0.04719237610697746
8.590519428253174e-05,0.04729003086686134
8.647143840789795e-05,0.04738768935203552
8.703768253326416e-05,0.04753417149186134
8.76113772392273e-05,0.04770507290959358
8.81776213645935e-05,0.04782714322209358
8.875131607055664e-05,0.04792479798197746
8.931756019592285e-05,0.0479736253619194
8.988380432128906e-05,0.04794921353459358
9.04574990272522e-05,0.04790038615465164
9.102374315261841e-05,0.04782714322209358
9.158998727798462e-05,0.0477294847369194
9.216368198394775e-05,0.04758300259709358
9.272992610931396e-05,0.047460928559303284
9.329617023468018e-05,0.0473632737994194
9.386986494064331e-05,0.04726561903953552
9.443610906600952e-05,0.04716796055436134
9.500235319137573e-05,0.047143545001745224
9.557604789733887e-05,0.04716796055436134
9.614229202270508e-05,0.047216787934303284
9.671598672866821e-05,0.04726561903953552
9.728223085403442e-05,0.04729003086686134
9.784847497940063e-05,0.04731444641947746
9.842216968536377e-05,0.0473632737994194
9.898841381072998e-05,0.0474853441119194
9.955465793609619e-05,0.04755858704447746
0.00010012835264205933,0.04753417149186134
0.00010069459676742554,0.04741210117936134
0.00010126084089279175,0.047216787934303284
0.00010183453559875488,0.04704589024186134
0.0001024007797241211,0.046899404376745224
0.0001029670238494873,0.046728506684303284
0.00010354071855545044,0.046630848199129105
0.00010410696268081665,0.046557605266571045
0.00010467320680618286,0.046533193439245224
0.000105246901512146,0.046435534954071045
0.00010581314563751221,0.046240221709012985
0.00010638684034347534,0.046020496636629105
0.00010695308446884155,0.045800767838954926
0.00010751932859420776,0.045581042766571045
0.0001080930233001709,0.045434556901454926
0.00010865926742553711,0.045361313968896866
0.00010922551155090332,0.045312486588954926
0.00010979920625686646,0.045263659209012985
0.00011036545038223267,0.045190416276454926
0.00011093169450759888,0.045190416276454926
0.00011150538921356201,0.045214828103780746
0.00011207163333892822,0.045336902141571045
0.00011263787746429443,0.045507799834012985
0.00011321157217025757,0.045776356011629105
0.00011377781629562378,0.046118151396512985
0.00011435151100158691,0.046386707574129105
0.00011491775512695312,0.046630848199129105
0.00011548399925231934,0.04680174961686134
0.00011605769395828247,0.046972647309303284
0.00011662393808364868,0.047143545001745224
0.00011719018220901489,0.04729003086686134
0.00011776387691497803,0.047460928559303284
0.00011833012104034424,0.0476074144244194
0.00011889636516571045,0.04770507290959358
0.00011947005987167358,0.04770507290959358
0.0001200363039970398,0.04763182997703552
0.000120602548122406,0.0474853441119194
0.00012117624282836914,0.0473632737994194
0.00012174248695373535,0.047216787934303284
0.00012230873107910156,0.047070302069187164
0.0001228824257850647,0.046948231756687164
0.0001234486699104309,0.046728506684303284
0.00012402236461639404,0.046484366059303284
0.00012458860874176025,0.046215809881687164
0.00012515485286712646,0.045971669256687164
0.0001257285475730896,0.045776356011629105
0.0001262947916984558,0.045654281973838806
0.00012686103582382202,0.045581042766571045
0.00012743473052978516,0.045581042766571045
0.00012800097465515137,0.045678697526454926
0.00012856721878051758,0.045800767838954926
0.0001291409134864807,0.045922838151454926
0.00012970715761184692,0.046044908463954926
0.00013027340173721313,0.046142566949129105
0.00013084709644317627,0.046240221709012985
0.00013141334056854248,0.046337880194187164
0.00013198703527450562,0.046411123126745224
0.00013255327939987183,0.046411123126745224
0.00013311952352523804,0.046337880194187164
0.00013369321823120117,0.046191394329071045
