Time,Voltage
0.0,0.04794921353459358
5.690380930900574e-07,0.04792479798197746
1.1380761861801147e-06,0.04777831584215164
1.7066486179828644e-06,0.04755858704447746
2.2756867110729218e-06,0.04731444641947746
2.844724804162979e-06,0.047143545001745224
3.4132972359657288e-06,0.04704589024186134
3.982335329055786e-06,0.04704589024186134
4.5513734221458435e-06,0.047070302069187164
5.119945853948593e-06,0.047094717621803284
5.6889839470386505e-06,0.0471191331744194
6.258022040128708e-06,0.047216787934303284
6.8265944719314575e-06,0.0473632737994194
7.395632565021515e-06,0.0476074144244194
7.964670658111572e-06,0.04790038615465164
8.533243089914322e-06,0.04819335415959358
9.10228118300438e-06,0.04841308295726776
9.671319276094437e-06,0.0485839806497097
1.0239891707897186e-05,0.04865722358226776
1.0808929800987244e-05,0.0487060509622097
1.1377967894077301e-05,0.0487060509622097
1.194654032588005e-05,0.04873046651482582
1.2515578418970108e-05,0.04877929389476776
1.3084616512060165e-05,0.04875487834215164
1.3653654605150223e-05,0.0487060509622097
1.4222227036952972e-05,0.04860839620232582
1.479126513004303e-05,0.04843749478459358
1.5360303223133087e-05,0.04819335415959358
1.5928875654935837e-05,0.04782714322209358
1.6497913748025894e-05,0.04743651673197746
1.706695184111595e-05,0.04704589024186134
1.76355242729187e-05,0.04680174961686134
1.820456236600876e-05,0.04680174961686134
1.8773600459098816e-05,0.0469970628619194
1.9342172890901566e-05,0.04731444641947746
1.9911210983991623e-05,0.04758300259709358
2.048024907708168e-05,0.04780272766947746
2.104882150888443e-05,0.04792479798197746
2.1617859601974487e-05,0.04799804091453552
2.2186897695064545e-05,0.0479736253619194
2.2755470126867294e-05,0.04790038615465164
2.332450821995735e-05,0.04775390028953552
2.389354631304741e-05,0.04763182997703552
2.446211874485016e-05,0.04750975966453552
2.5031156837940216e-05,0.047460928559303284
2.5600194931030273e-05,0.04743651673197746
2.6168767362833023e-05,0.04738768935203552
2.673780545592308e-05,0.04738768935203552
2.7306843549013138e-05,0.04741210117936134
2.7875881642103195e-05,0.0474853441119194
2.8444454073905945e-05,0.04758300259709358
2.9013492166996002e-05,0.04763182997703552
2.958253026008606e-05,0.04768065735697746
3.015110269188881e-05,0.0477294847369194
3.0720140784978867e-05,0.04780272766947746
3.1289178878068924e-05,0.04790038615465164
3.1857751309871674e-05,0.04804686829447746
3.242678940296173e-05,0.0482177697122097
3.299582749605179e-05,0.0483398400247097
3.356439992785454e-05,0.04841308295726776
3.4133438020944595e-05,0.04838866740465164
3.470247611403465e-05,0.04826659709215164
3.52710485458374e-05,0.04804686829447746
3.584008663892746e-05,0.04782714322209358
3.640912473201752e-05,0.04768065735697746
3.697769716382027e-05,0.0476074144244194
3.7546735256910324e-05,0.0476074144244194
3.811577335000038e-05,0.04765624180436134
3.868434578180313e-05,0.0477294847369194
3.925338387489319e-05,0.04780272766947746
3.9822421967983246e-05,0.04787597060203552
4.0390994399785995e-05,0.04794921353459358
4.096003249287605e-05,0.0479736253619194
4.152907058596611e-05,0.04790038615465164
4.209764301776886e-05,0.04780272766947746
4.266668111085892e-05,0.04765624180436134
4.3235719203948975e-05,0.0474853441119194
4.380475729703903e-05,0.04726561903953552
4.437332972884178e-05,0.047021474689245224
4.494236782193184e-05,0.046752918511629105
4.5511405915021896e-05,0.046484366059303284
4.6079978346824646e-05,0.046313464641571045
4.66490164399147e-05,0.046215809881687164
4.721805453300476e-05,0.046215809881687164
4.778662696480751e-05,0.046264637261629105
4.835566505789757e-05,0.046313464641571045
4.8924703150987625e-05,0.046264637261629105
4.9493275582790375e-05,0.046191394329071045
5.006231367588043e-05,0.046044908463954926
5.063135176897049e-05,0.045825183391571045
5.119992420077324e-05,0.045581042766571045
5.1768962293863297e-05,0.045361313968896866
5.2338000386953354e-05,0.045214828103780746
5.2906572818756104e-05,0.045214828103780746
5.347561091184616e-05,0.045410141348838806
5.404464900493622e-05,0.045703113079071045
5.461322143673897e-05,0.046020496636629105
5.5182259529829025e-05,0.046240221709012985
5.575129762291908e-05,0.046386707574129105
5.631987005472183e-05,0.046459950506687164
5.688890814781189e-05,0.046484366059303284
5.745794624090195e-05,0.046508777886629105
5.8026984333992004e-05,0.046533193439245224
5.8595556765794754e-05,0.046606436371803284
5.916459485888481e-05,0.04667967930436134
5.973363295197487e-05,0.04680174961686134
6.030220538377762e-05,0.046948231756687164
6.0871243476867676e-05,0.047094717621803284
6.144028156995773e-05,0.04719237610697746
6.200885400176048e-05,0.047216787934303284
6.257789209485054e-05,0.04719237610697746
6.31469301879406e-05,0.04719237610697746
6.371550261974335e-05,0.047216787934303284
6.42845407128334e-05,0.0472412034869194
6.485357880592346e-05,0.0472412034869194
6.542215123772621e-05,0.04719237610697746
6.599118933081627e-05,0.047143545001745224
6.656022742390633e-05,0.047143545001745224
6.712879985570908e-05,0.047216787934303284
6.769783794879913e-05,0.047338858246803284
6.826687604188919e-05,0.0474853441119194
6.883544847369194e-05,0.04763182997703552
6.9404486566782e-05,0.04775390028953552
6.997352465987206e-05,0.04782714322209358
7.05420970916748e-05,0.04787597060203552
7.111113518476486e-05,0.04794921353459358
7.168017327785492e-05,0.04807128384709358
7.224921137094498e-05,0.0482177697122097
7.281778380274773e-05,0.04831542447209358
7.338682189583778e-05,0.04831542447209358
7.395585998892784e-05,0.0482177697122097
7.452443242073059e-05,0.04804686829447746
7.509347051382065e-05,0.0478515550494194
7.56625086069107e-05,0.04770507290959358
7.623108103871346e-05,0.04765624180436134
7.680011913180351e-05,0.04765624180436134
7.736915722489357e-05,0.04768065735697746
7.793772965669632e-05,0.04768065735697746
7.850676774978638e-05,0.04765624180436134
7.907580584287643e-05,0.04758300259709358
7.964437827467918e-05,0.04750975966453552
8.021341636776924e-05,0.04750975966453552
8.07824544608593e-05,0.04763182997703552
8.135102689266205e-05,0.0478515550494194
8.19200649857521e-05,0.04814452677965164
8.248910307884216e-05,0.04843749478459358
8.305767551064491e-05,0.04853515326976776
8.362671360373497e-05,0.0484619103372097
8.419575169682503e-05,0.0482177697122097
8.476432412862778e-05,0.04792479798197746
8.533336222171783e-05,0.04758300259709358
8.590240031480789e-05,0.047216787934303284
8.647143840789795e-05,0.046826161444187164
8.70400108397007e-05,0.046435534954071045
8.760904893279076e-05,0.046093739569187164
8.817808702588081e-05,0.045898426324129105
8.874665945768356e-05,0.045874010771512985
8.931569755077362e-05,0.045947253704071045
8.988473564386368e-05,0.046069324016571045
9.045330807566643e-05,0.046264637261629105
9.102234616875648e-05,0.046459950506687164
9.159138426184654e-05,0.046630848199129105
9.215995669364929e-05,0.046752918511629105
9.272899478673935e-05,0.046850576996803284
9.32980328798294e-05,0.0468749925494194
9.386660531163216e-05,0.046899404376745224
9.443564340472221e-05,0.04692381992936134
9.500468149781227e-05,0.04704589024186134
9.557325392961502e-05,0.04716796055436134
9.614229202270508e-05,0.04726561903953552
9.671133011579514e-05,0.047338858246803284
9.727990254759789e-05,0.04729003086686134
9.784894064068794e-05,0.04716796055436134
9.8417978733778e-05,0.0469970628619194
9.898655116558075e-05,0.046777334064245224
9.955558925867081e-05,0.046533193439245224
0.00010012462735176086,0.046337880194187164
0.00010069319978356361,0.046240221709012985
0.00010126223787665367,0.046264637261629105
0.00010183127596974373,0.046362295746803284
0.00010240031406283379,0.046582020819187164
0.00010296888649463654,0.046948231756687164
0.00010353792458772659,0.047338858246803284
0.00010410696268081665,0.04765624180436134
0.0001046755351126194,0.04775390028953552
0.00010524457320570946,0.04763182997703552
0.00010581361129879951,0.04731444641947746
0.00010638218373060226,0.0468749925494194
0.00010695122182369232,0.046386707574129105
0.00010752025991678238,0.045971669256687164
0.00010808883234858513,0.045654281973838806
0.00010865787044167519,0.045458972454071045
0.00010922690853476524,0.045361313968896866
0.00010979548096656799,0.045385729521512985
0.00011036451905965805,0.045410141348838806
0.00011093355715274811,0.045458972454071045
0.00011150212958455086,0.045434556901454926
0.00011207116767764091,0.045336902141571045
0.00011264020577073097,0.045312486588954926
0.00011320877820253372,0.045336902141571045
0.00011377781629562378,0.045361313968896866
0.00011434685438871384,0.045361313968896866
0.00011491542682051659,0.045312486588954926
0.00011548446491360664,0.045263659209012985
0.0001160535030066967,0.045214828103780746
0.00011662254109978676,0.045190416276454926
0.00011719111353158951,0.045190416276454926
0.00011776015162467957,0.045263659209012985
0.00011832918971776962,0.045458972454071045
0.00011889776214957237,0.045727524906396866
0.00011946680024266243,0.046044908463954926
0.00012003583833575249,0.046362295746803284
0.00012060441076755524,0.046582020819187164
0.0001211734488606453,0.04667967930436134
0.00012174248695373535,0.046704091131687164
0.0001223110593855381,0.046704091131687164
0.00012288009747862816,0.046777334064245224
0.00012344913557171822,0.046899404376745224
0.00012401770800352097,0.047021474689245224
0.00012458674609661102,0.047143545001745224
0.00012515578418970108,0.047216787934303284
0.00012572435662150383,0.0472412034869194
0.0001262933947145939,0.04719237610697746
0.00012686243280768394,0.0469970628619194
0.0001274310052394867,0.04667967930436134
0.00012800004333257675,0.046289052814245224
0.0001285690814256668,0.045971669256687164
0.00012913765385746956,0.045849598944187164
0.00012970669195055962,0.045874010771512985
0.00013027573004364967,0.045971669256687164
0.00013084476813673973,0.046069324016571045
0.00013141334056854248,0.046191394329071045
0.00013198237866163254,0.046386707574129105
0.0001325514167547226,0.046655263751745224
0.00013311998918652534,0.04692381992936134
0.0001336890272796154,0.04719237610697746
