Time,Voltage
0.0,0.046044908463954926
5.662441253662109e-07,0.046142566949129105
1.1324882507324219e-06,0.046264637261629105
1.6987323760986328e-06,0.046362295746803284
2.2649765014648438e-06,0.046459950506687164
2.8461217880249023e-06,0.046411123126745224
3.4123659133911133e-06,0.046093739569187164
3.978610038757324e-06,0.045410141348838806
4.544854164123535e-06,0.04433592036366463
5.111098289489746e-06,0.04306638613343239
5.677342414855957e-06,0.04191891849040985
6.258487701416016e-06,0.04106442630290985
6.8247318267822266e-06,0.04035641625523567
7.3909759521484375e-06,0.03967282176017761
7.957220077514648e-06,0.038915980607271194
8.52346420288086e-06,0.038134731352329254
9.08970832824707e-06,0.037329062819480896
9.670853614807129e-06,0.03654780983924866
1.023709774017334e-05,0.0358642153441906
1.080334186553955e-05,0.0352538600564003
1.1369585990905762e-05,0.03478999063372612
1.1935830116271973e-05,0.0343993678689003
1.2516975402832031e-05,0.03413081169128418
1.3083219528198242e-05,0.03398432582616806
1.3649463653564453e-05,0.03386225551366806
1.4215707778930664e-05,0.03383783996105194
1.4781951904296875e-05,0.03395991027355194
1.5348196029663086e-05,0.03430170938372612
1.5929341316223145e-05,0.03483881801366806
1.6495585441589355e-05,0.03554683178663254
1.7061829566955566e-05,0.03627925366163254
1.7628073692321777e-05,0.036962851881980896
1.8194317817687988e-05,0.037475548684597015
1.8775463104248047e-05,0.037744104862213135
1.9341707229614258e-05,0.037768516689538956
1.990795135498047e-05,0.037622030824422836
2.047419548034668e-05,0.037353478372097015
2.104043960571289e-05,0.03698726370930672
2.16066837310791e-05,0.03664546459913254
2.218782901763916e-05,0.03627925366163254
2.275407314300537e-05,0.0359862856566906
2.3320317268371582e-05,0.0357421413064003
2.3886561393737793e-05,0.03552241623401642
2.4452805519104004e-05,0.0353759303689003
2.5019049644470215e-05,0.03527827560901642
2.5600194931030273e-05,0.03520503267645836
2.6166439056396484e-05,0.03515620529651642
2.6732683181762695e-05,0.03518061712384224
2.7298927307128906e-05,0.03530269116163254
2.7865171432495117e-05,0.0354980006814003
2.8446316719055176e-05,0.03566890209913254
2.9012560844421387e-05,0.03581538796424866
2.9578804969787598e-05,0.03591304272413254
3.014504909515381e-05,0.0359862856566906
3.071129322052002e-05,0.03605952858924866
3.127753734588623e-05,0.03615718334913254
3.185868263244629e-05,0.03630366921424866
3.24249267578125e-05,0.03640132397413254
3.299117088317871e-05,0.03637691214680672
3.355741500854492e-05,0.03627925366163254
3.412365913391113e-05,0.03608394041657448
3.4689903259277344e-05,0.0358642153441906
3.52710485458374e-05,0.03569331392645836
3.583729267120361e-05,0.03564448654651642
3.6403536796569824e-05,0.03571772947907448
3.6969780921936035e-05,0.03603511303663254
3.7536025047302246e-05,0.03664546459913254
3.8117170333862305e-05,0.037573203444480896
3.8683414459228516e-05,0.038671839982271194
3.9249658584594727e-05,0.03984371945261955
3.981590270996094e-05,0.04101559519767761
4.038214683532715e-05,0.04221189022064209
4.094839096069336e-05,0.04338376969099045
4.152953624725342e-05,0.044360335916280746
4.209578037261963e-05,0.04514158517122269
4.266202449798584e-05,0.045678697526454926
4.322826862335205e-05,0.046020496636629105
4.379451274871826e-05,0.046215809881687164
4.436075687408447e-05,0.046362295746803284
4.494190216064453e-05,0.046435534954071045
4.550814628601074e-05,0.046459950506687164
4.607439041137695e-05,0.046484366059303284
4.6640634536743164e-05,0.046557605266571045
4.7206878662109375e-05,0.046752918511629105
4.7788023948669434e-05,0.04704589024186134
4.8354268074035645e-05,0.0473632737994194
4.8920512199401855e-05,0.04763182997703552
4.9486756324768066e-05,0.0478515550494194
5.005300045013428e-05,0.0479736253619194
5.061924457550049e-05,0.0479736253619194
5.120038986206055e-05,0.04787597060203552
5.176663398742676e-05,0.04775390028953552
5.233287811279297e-05,0.04763182997703552
5.289912223815918e-05,0.04755858704447746
5.346536636352539e-05,0.0474853441119194
5.404651165008545e-05,0.04738768935203552
5.461275577545166e-05,0.04726561903953552
5.517899990081787e-05,0.0471191331744194
5.574524402618408e-05,0.0469970628619194
5.631148815155029e-05,0.04692381992936134
5.6877732276916504e-05,0.046948231756687164
5.745887756347656e-05,0.047070302069187164
5.8025121688842773e-05,0.0472412034869194
5.8591365814208984e-05,0.04738768935203552
5.9157609939575195e-05,0.0474853441119194
5.9723854064941406e-05,0.04753417149186134
6.029009819030762e-05,0.04750975966453552
6.0871243476867676e-05,0.047460928559303284
6.143748760223389e-05,0.04743651673197746
6.20037317276001e-05,0.04743651673197746
6.256997585296631e-05,0.04755858704447746
6.313621997833252e-05,0.04765624180436134
6.371736526489258e-05,0.04770507290959358
6.428360939025879e-05,0.04765624180436134
6.4849853515625e-05,0.04753417149186134
6.541609764099121e-05,0.0473632737994194
6.598234176635742e-05,0.0471191331744194
6.654858589172363e-05,0.046850576996803284
6.712973117828369e-05,0.046533193439245224
6.76959753036499e-05,0.046215809881687164
6.826221942901611e-05,0.045898426324129105
6.882846355438232e-05,0.045605454593896866
6.939470767974854e-05,0.045434556901454926
6.996095180511475e-05,0.045410141348838806
7.05420970916748e-05,0.045483384281396866
7.110834121704102e-05,0.045629870146512985
7.167458534240723e-05,0.045825183391571045
7.224082946777344e-05,0.046069324016571045
7.280707359313965e-05,0.046289052814245224
7.338821887969971e-05,0.046435534954071045
7.395446300506592e-05,0.046459950506687164
7.452070713043213e-05,0.046435534954071045
7.508695125579834e-05,0.046386707574129105
7.565319538116455e-05,0.046362295746803284
7.621943950653076e-05,0.046362295746803284
7.680058479309082e-05,0.046362295746803284
7.736682891845703e-05,0.046411123126745224
7.793307304382324e-05,0.046533193439245224
7.849931716918945e-05,0.046704091131687164
7.906556129455566e-05,0.046948231756687164
7.964670658111572e-05,0.04716796055436134
8.021295070648193e-05,0.0473632737994194
8.077919483184814e-05,0.0474853441119194
8.134543895721436e-05,0.04750975966453552
8.191168308258057e-05,0.04741210117936134
8.247792720794678e-05,0.04719237610697746
8.305907249450684e-05,0.04692381992936134
8.362531661987305e-05,0.046630848199129105
8.419156074523926e-05,0.046362295746803284
8.475780487060547e-05,0.046118151396512985
8.532404899597168e-05,0.045947253704071045
8.589029312133789e-05,0.045874010771512985
8.647143840789795e-05,0.045922838151454926
8.703768253326416e-05,0.046044908463954926
8.760392665863037e-05,0.046289052814245224
8.817017078399658e-05,0.046557605266571045
8.873641490936279e-05,0.046899404376745224
8.931756019592285e-05,0.0472412034869194
8.988380432128906e-05,0.0476074144244194
9.045004844665527e-05,0.0478515550494194
9.101629257202148e-05,0.04790038615465164
9.15825366973877e-05,0.04782714322209358
9.21487808227539e-05,0.04763182997703552
9.272992610931396e-05,0.04731444641947746
9.329617023468018e-05,0.046972647309303284
9.386241436004639e-05,0.046704091131687164
9.44286584854126e-05,0.046557605266571045
9.499490261077881e-05,0.046484366059303284
9.556114673614502e-05,0.046435534954071045
9.614229202270508e-05,0.046411123126745224
9.670853614807129e-05,0.046411123126745224
9.72747802734375e-05,0.046508777886629105
9.784102439880371e-05,0.046655263751745224
9.840726852416992e-05,0.046826161444187164
9.898841381072998e-05,0.04704589024186134
9.955465793609619e-05,0.047216787934303284
0.0001001209020614624,0.04741210117936134
0.00010068714618682861,0.0476074144244194
0.00010125339031219482,0.04777831584215164
0.00010181963443756104,0.0479736253619194
0.0001024007797241211,0.0482177697122097
0.0001029670238494873,0.04843749478459358
0.00010353326797485352,0.04865722358226776
0.00010409951210021973,0.04880370944738388
0.00010466575622558594,0.04887694865465164
0.00010523200035095215,0.04885253682732582
0.00010581314563751221,0.04868163913488388
0.00010637938976287842,0.04838866740465164
0.00010694563388824463,0.04802245646715164
0.00010751187801361084,0.04765624180436134
0.00010807812213897705,0.04731444641947746
0.00010865926742553711,0.047070302069187164
0.00010922551155090332,0.04692381992936134
0.00010979175567626953,0.04692381992936134
0.00011035799980163574,0.0469970628619194
0.00011092424392700195,0.047070302069187164
0.00011149048805236816,0.047143545001745224
0.00011207163333892822,0.047216787934303284
0.00011263787746429443,0.04731444641947746
0.00011320412158966064,0.04741210117936134
0.00011377036571502686,0.04750975966453552
0.00011433660984039307,0.0476074144244194
0.00011491775512695312,0.04765624180436134
0.00011548399925231934,0.04768065735697746
0.00011605024337768555,0.04768065735697746
0.00011661648750305176,0.04775390028953552
0.00011718273162841797,0.04787597060203552
0.00011774897575378418,0.04799804091453552
0.00011833012104034424,0.04802245646715164
0.00011889636516571045,0.04792479798197746
0.00011946260929107666,0.04770507290959358
0.00012002885341644287,0.047338858246803284
0.00012059509754180908,0.04692381992936134
0.00012116134166717529,0.046533193439245224
0.00012174248695373535,0.046264637261629105
0.00012230873107910156,0.046069324016571045
0.00012287497520446777,0.045996081084012985
0.00012344121932983398,0.046020496636629105
0.0001240074634552002,0.046142566949129105
0.00012458860874176025,0.046289052814245224
0.00012515485286712646,0.046411123126745224
0.00012572109699249268,0.046459950506687164
0.0001262873411178589,0.046435534954071045
0.0001268535852432251,0.046411123126745224
0.0001274198293685913,0.046435534954071045
0.00012800097465515137,0.046582020819187164
0.00012856721878051758,0.046728506684303284
0.0001291334629058838,0.046826161444187164
0.00012969970703125,0.046899404376745224
0.0001302659511566162,0.046948231756687164
0.00013083219528198242,0.046948231756687164
0.00013141334056854248,0.04692381992936134
0.0001319795846939087,0.046899404376745224
0.0001325458288192749,0.04692381992936134
0.0001331120729446411,0.0469970628619194
0.00013367831707000732,0.047094717621803284
