Time,Voltage
0.0,0.046215809881687164
5.699694156646729e-07,0.046264637261629105
1.1399388313293457e-06,0.046313464641571045
1.7099082469940186e-06,0.046362295746803284
2.2761523723602295e-06,0.046508777886629105
2.8461217880249023e-06,0.046728506684303284
3.416091203689575e-06,0.046899404376745224
3.982335329055786e-06,0.0469970628619194
4.552304744720459e-06,0.046972647309303284
5.122274160385132e-06,0.046752918511629105
5.688518285751343e-06,0.046240221709012985
6.258487701416016e-06,0.045507799834012985
6.8284571170806885e-06,0.04465330392122269
7.398426532745361e-06,0.04387205094099045
7.964670658111572e-06,0.04311521351337433
8.534640073776245e-06,0.04233396053314209
9.104609489440918e-06,0.04160153865814209
9.670853614807129e-06,0.04094235599040985
1.0240823030471802e-05,0.04050289839506149
1.0810792446136475e-05,0.04038082808256149
1.1380761861801147e-05,0.04060055688023567
1.1947005987167358e-05,0.04108884185552597
1.2516975402832031e-05,0.04177243635058403
1.3086944818496704e-05,0.04250486195087433
1.3653188943862915e-05,0.04323728382587433
1.4223158359527588e-05,0.04394529387354851
1.479312777519226e-05,0.04458006098866463
1.5363097190856934e-05,0.045166000723838806
1.5929341316223145e-05,0.045678697526454926
1.6499310731887817e-05,0.046142566949129105
1.706928014755249e-05,0.046630848199129105
1.76355242729187e-05,0.0471191331744194
1.8205493688583374e-05,0.04755858704447746
1.8775463104248047e-05,0.04790038615465164
1.934543251991272e-05,0.04814452677965164
1.991167664527893e-05,0.04831542447209358
2.0481646060943604e-05,0.04841308295726776
2.1051615476608276e-05,0.0484619103372097
2.1617859601974487e-05,0.04848632588982582
2.218782901763916e-05,0.0484619103372097
2.2757798433303833e-05,0.04841308295726776
2.3324042558670044e-05,0.04831542447209358
2.3894011974334717e-05,0.04819335415959358
2.446398138999939e-05,0.04807128384709358
2.5033950805664062e-05,0.04794921353459358
2.5600194931030273e-05,0.04790038615465164
2.6170164346694946e-05,0.0478515550494194
2.674013376235962e-05,0.04780272766947746
2.730637788772583e-05,0.0477294847369194
2.7876347303390503e-05,0.04763182997703552
2.8446316719055176e-05,0.04755858704447746
2.901628613471985e-05,0.04750975966453552
2.958253026008606e-05,0.0474853441119194
3.0152499675750732e-05,0.0474853441119194
3.0722469091415405e-05,0.04750975966453552
3.1288713216781616e-05,0.04753417149186134
3.185868263244629e-05,0.04755858704447746
3.242865204811096e-05,0.04753417149186134
3.2998621463775635e-05,0.04750975966453552
3.3564865589141846e-05,0.04743651673197746
3.413483500480652e-05,0.04738768935203552
3.470480442047119e-05,0.047338858246803284
3.52710485458374e-05,0.047338858246803284
3.5841017961502075e-05,0.04738768935203552
3.641098737716675e-05,0.0474853441119194
3.698095679283142e-05,0.04763182997703552
3.754720091819763e-05,0.04777831584215164
3.8117170333862305e-05,0.0478515550494194
3.868713974952698e-05,0.04787597060203552
3.925338387489319e-05,0.04782714322209358
3.982335329055786e-05,0.0477294847369194
4.0393322706222534e-05,0.04755858704447746
4.096329212188721e-05,0.04743651673197746
4.152953624725342e-05,0.047338858246803284
4.209950566291809e-05,0.04731444641947746
4.2669475078582764e-05,0.04726561903953552
4.3235719203948975e-05,0.04719237610697746
4.380568861961365e-05,0.047094717621803284
4.437565803527832e-05,0.04704589024186134
4.494190216064453e-05,0.04704589024186134
4.5511871576309204e-05,0.04716796055436134
4.608184099197388e-05,0.047338858246803284
4.665181040763855e-05,0.04758300259709358
4.721805453300476e-05,0.04782714322209358
4.7788023948669434e-05,0.04804686829447746
4.8357993364334106e-05,0.04814452677965164
4.892423748970032e-05,0.04819335415959358
4.949420690536499e-05,0.04814452677965164
5.006417632102966e-05,0.04804686829447746
5.0634145736694336e-05,0.04794921353459358
5.120038986206055e-05,0.04790038615465164
5.177035927772522e-05,0.0478515550494194
5.234032869338989e-05,0.04782714322209358
5.2906572818756104e-05,0.04780272766947746
5.3476542234420776e-05,0.04782714322209358
5.404651165008545e-05,0.04790038615465164
5.461648106575012e-05,0.04792479798197746
5.518272519111633e-05,0.04790038615465164
5.5752694606781006e-05,0.04780272766947746
5.632266402244568e-05,0.0476074144244194
5.688890814781189e-05,0.0473632737994194
5.745887756347656e-05,0.047094717621803284
5.8028846979141235e-05,0.0468749925494194
5.859881639480591e-05,0.046728506684303284
5.916506052017212e-05,0.04667967930436134
5.973502993583679e-05,0.04667967930436134
6.0304999351501465e-05,0.046752918511629105
6.0871243476867676e-05,0.046899404376745224
6.144121289253235e-05,0.047143545001745224
6.201118230819702e-05,0.047460928559303284
6.257742643356323e-05,0.0478515550494194
6.31473958492279e-05,0.0482177697122097
6.371736526489258e-05,0.04843749478459358
6.428733468055725e-05,0.04848632588982582
6.485357880592346e-05,0.04836425185203552
6.542354822158813e-05,0.04814452677965164
6.599351763725281e-05,0.04792479798197746
6.655976176261902e-05,0.0477294847369194
6.712973117828369e-05,0.04763182997703552
6.769970059394836e-05,0.0476074144244194
6.826967000961304e-05,0.04758300259709358
6.883591413497925e-05,0.04750975966453552
6.940588355064392e-05,0.047460928559303284
6.99758529663086e-05,0.047460928559303284
7.05420970916748e-05,0.047460928559303284
7.111206650733948e-05,0.04755858704447746
7.168203592300415e-05,0.04768065735697746
7.225200533866882e-05,0.0478515550494194
7.281824946403503e-05,0.04804686829447746
7.338821887969971e-05,0.04816893860697746
7.395818829536438e-05,0.0482177697122097
7.452443242073059e-05,0.0482177697122097
7.509440183639526e-05,0.0480956993997097
7.566437125205994e-05,0.04794921353459358
7.623434066772461e-05,0.04780272766947746
7.680058479309082e-05,0.04765624180436134
7.737055420875549e-05,0.047460928559303284
7.794052362442017e-05,0.047216787934303284
7.850676774978638e-05,0.046948231756687164
7.907673716545105e-05,0.046630848199129105
7.964670658111572e-05,0.046313464641571045
8.021295070648193e-05,0.046069324016571045
8.07829201221466e-05,0.046020496636629105
8.135288953781128e-05,0.046142566949129105
8.192285895347595e-05,0.046362295746803284
8.248910307884216e-05,0.046606436371803284
8.305907249450684e-05,0.04680174961686134
8.362904191017151e-05,0.046948231756687164
8.419528603553772e-05,0.04704589024186134
8.476525545120239e-05,0.0471191331744194
8.533522486686707e-05,0.047143545001745224
8.590519428253174e-05,0.047070302069187164
8.647143840789795e-05,0.046948231756687164
8.704140782356262e-05,0.04680174961686134
8.76113772392273e-05,0.046655263751745224
8.81776213645935e-05,0.046557605266571045
8.874759078025818e-05,0.046484366059303284
8.931756019592285e-05,0.046459950506687164
8.988752961158752e-05,0.046459950506687164
9.045377373695374e-05,0.046508777886629105
9.102374315261841e-05,0.046655263751745224
9.159371256828308e-05,0.046850576996803284
9.215995669364929e-05,0.047070302069187164
9.272992610931396e-05,0.04716796055436134
9.329989552497864e-05,0.047143545001745224
9.386986494064331e-05,0.046972647309303284
9.443610906600952e-05,0.046704091131687164
9.50060784816742e-05,0.046484366059303284
9.557604789733887e-05,0.046337880194187164
9.614229202270508e-05,0.046289052814245224
9.671226143836975e-05,0.046289052814245224
9.728223085403442e-05,0.046362295746803284
9.78522002696991e-05,0.046533193439245224
9.841844439506531e-05,0.046752918511629105
9.898841381072998e-05,0.046972647309303284
9.955838322639465e-05,0.0472412034869194
0.00010012462735176086,0.04750975966453552
0.00010069459676742554,0.04777831584215164
0.00010126456618309021,0.04792479798197746
0.00010183081030845642,0.04794921353459358
0.0001024007797241211,0.04782714322209358
0.00010297074913978577,0.04768065735697746
0.00010354071855545044,0.04753417149186134
0.00010410696268081665,0.047460928559303284
0.00010467693209648132,0.04741210117936134
0.000105246901512146,0.04738768935203552
0.00010581314563751221,0.047338858246803284
0.00010638311505317688,0.04726561903953552
0.00010695308446884155,0.047143545001745224
0.00010752305388450623,0.047021474689245224
0.00010808929800987244,0.046899404376745224
0.00010865926742553711,0.04680174961686134
0.00010922923684120178,0.046728506684303284
0.00010979548096656799,0.046655263751745224
0.00011036545038223267,0.046655263751745224
0.00011093541979789734,0.046655263751745224
0.00011150538921356201,0.04667967930436134
0.00011207163333892822,0.046704091131687164
0.0001126416027545929,0.046777334064245224
0.00011321157217025757,0.0468749925494194
0.00011377781629562378,0.047021474689245224
0.00011434778571128845,0.047143545001745224
0.00011491775512695312,0.04726561903953552
0.0001154877245426178,0.047338858246803284
0.00011605396866798401,0.04741210117936134
0.00011662393808364868,0.04741210117936134
0.00011719390749931335,0.04738768935203552
0.00011776015162467957,0.04726561903953552
0.00011833012104034424,0.047094717621803284
0.00011890009045600891,0.046899404376745224
0.00011946633458137512,0.046752918511629105
0.0001200363039970398,0.046655263751745224
0.00012060627341270447,0.04667967930436134
0.00012117624282836914,0.046704091131687164
0.00012174248695373535,0.046752918511629105
0.00012231245636940002,0.046826161444187164
0.0001228824257850647,0.04692381992936134
0.0001234486699104309,0.047021474689245224
0.00012401863932609558,0.047094717621803284
0.00012458860874176025,0.047216787934303284
0.00012515857815742493,0.047338858246803284
0.00012572482228279114,0.04750975966453552
0.0001262947916984558,0.04768065735697746
0.00012686476111412048,0.04777831584215164
0.0001274310052394867,0.04777831584215164
0.00012800097465515137,0.04768065735697746
0.00012857094407081604,0.04755858704447746
0.0001291409134864807,0.047460928559303284
0.00012970715761184692,0.04743651673197746
0.0001302771270275116,0.04743651673197746
0.00013084709644317627,0.0474853441119194
0.00013141334056854248,0.04758300259709358
0.00013198330998420715,0.04775390028953552
0.00013255327939987183,0.0479736253619194
0.0001331232488155365,0.0482177697122097
0.0001336894929409027,0.04838866740465164
