Time,Voltage
0.0,0.04667967930436134
5.688052624464035e-07,0.046777334064245224
1.1378433555364609e-06,0.046752918511629105
1.7066486179828644e-06,0.04667967930436134
2.275453880429268e-06,0.046728506684303284
2.8444919735193253e-06,0.046777334064245224
3.4132972359657288e-06,0.046606436371803284
3.982102498412132e-06,0.046044908463954926
4.55114059150219e-06,0.044995103031396866
5.119945853948593e-06,0.04365232586860657
5.6889839470386505e-06,0.04218747466802597
6.257789209485054e-06,0.04079587012529373
6.8265944719314575e-06,0.039599575102329254
7.395632565021515e-06,0.038623012602329254
7.964437827467918e-06,0.037890587002038956
8.533243089914322e-06,0.037329062819480896
9.10228118300438e-06,0.036889608949422836
9.671086445450783e-06,0.03654780983924866
1.0239891707897186e-05,0.0362304262816906
1.0808929800987244e-05,0.03593745827674866
1.1377735063433647e-05,0.03559565916657448
1.194654032588005e-05,0.0352538600564003
1.2515578418970108e-05,0.03503413498401642
1.3084383681416512e-05,0.03510737419128418
1.3653421774506569e-05,0.0353759303689003
1.4222227036952972e-05,0.03576655685901642
1.4791032299399376e-05,0.03615718334913254
1.5360070392489433e-05,0.03645015507936478
1.5928875654935837e-05,0.0365966372191906
1.649768091738224e-05,0.03662105277180672
1.7066719010472298e-05,0.03654780983924866
1.76355242729187e-05,0.03652339428663254
1.8204329535365105e-05,0.03662105277180672
1.8773367628455162e-05,0.03686519339680672
1.9342172890901566e-05,0.037133749574422836
1.9911210983991623e-05,0.037353478372097015
2.0480016246438026e-05,0.03742671757936478
2.104882150888443e-05,0.037377890199422836
2.1617859601974487e-05,0.037255819886922836
2.218666486442089e-05,0.037084922194480896
2.2755470126867294e-05,0.03691402077674866
2.332450821995735e-05,0.036840781569480896
2.3893313482403755e-05,0.036889608949422836
2.446211874485016e-05,0.03703609108924866
2.5031156837940216e-05,0.03715816140174866
2.559996210038662e-05,0.03715816140174866
2.6168767362833023e-05,0.03703609108924866
2.673780545592308e-05,0.03693843632936478
2.7306610718369484e-05,0.03706050664186478
2.787564881145954e-05,0.037499960511922836
2.8444454073905945e-05,0.038281213492155075
2.901325933635235e-05,0.03933102265000343
2.9582297429442406e-05,0.04060055688023567
3.015110269188881e-05,0.04196774959564209
3.071990795433521e-05,0.04331052675843239
3.128894604742527e-05,0.044555649161338806
3.1857751309871674e-05,0.045629870146512985
3.242655657231808e-05,0.046386707574129105
3.2995594665408134e-05,0.04680174961686134
3.356439992785454e-05,0.046948231756687164
3.413320519030094e-05,0.047021474689245224
3.4702243283391e-05,0.047070302069187164
3.52710485458374e-05,0.047070302069187164
3.584008663892746e-05,0.047021474689245224
3.640889190137386e-05,0.04692381992936134
3.697769716382027e-05,0.0468749925494194
3.7546735256910324e-05,0.046826161444187164
3.811554051935673e-05,0.04680174961686134
3.868434578180313e-05,0.046777334064245224
3.925338387489319e-05,0.04680174961686134
3.982218913733959e-05,0.046826161444187164
4.0390994399785995e-05,0.046777334064245224
4.096003249287605e-05,0.046704091131687164
4.1528837755322456e-05,0.046630848199129105
4.2097875848412514e-05,0.046606436371803284
4.266668111085892e-05,0.046655263751745224
4.323548637330532e-05,0.04680174961686134
4.380452446639538e-05,0.04704589024186134
4.437332972884178e-05,0.04731444641947746
4.4942134991288185e-05,0.04753417149186134
4.551117308437824e-05,0.04765624180436134
4.6079978346824646e-05,0.04770507290959358
4.664878360927105e-05,0.04768065735697746
4.721782170236111e-05,0.04765624180436134
4.778662696480751e-05,0.04765624180436134
4.8355432227253914e-05,0.04770507290959358
4.892447032034397e-05,0.04780272766947746
4.9493275582790375e-05,0.04794921353459358
5.006231367588043e-05,0.04814452677965164
5.0631118938326836e-05,0.04826659709215164
5.119992420077324e-05,0.04836425185203552
5.1768962293863297e-05,0.04841308295726776
5.23377675563097e-05,0.04836425185203552
5.2906572818756104e-05,0.04819335415959358
5.347561091184616e-05,0.0479736253619194
5.4044416174292564e-05,0.04775390028953552
5.461322143673897e-05,0.04765624180436134
5.5182259529829025e-05,0.04765624180436134
5.575106479227543e-05,0.04768065735697746
5.631987005472183e-05,0.04763182997703552
5.688890814781189e-05,0.04750975966453552
5.745771341025829e-05,0.0473632737994194
5.802675150334835e-05,0.047216787934303284
5.8595556765794754e-05,0.047143545001745224
5.916436202824116e-05,0.047143545001745224
5.9733400121331215e-05,0.0472412034869194
6.030220538377762e-05,0.04738768935203552
6.087101064622402e-05,0.04758300259709358
6.144004873931408e-05,0.04777831584215164
6.200885400176048e-05,0.04790038615465164
6.257765926420689e-05,0.04792479798197746
6.314669735729694e-05,0.04787597060203552
6.371550261974335e-05,0.04775390028953552
6.42845407128334e-05,0.04755858704447746
6.485334597527981e-05,0.047338858246803284
6.542215123772621e-05,0.04719237610697746
6.599118933081627e-05,0.047094717621803284
6.655999459326267e-05,0.047021474689245224
6.712879985570908e-05,0.046948231756687164
6.769783794879913e-05,0.0468749925494194
6.826664321124554e-05,0.0468749925494194
6.883544847369194e-05,0.046948231756687164
6.9404486566782e-05,0.047070302069187164
6.99732918292284e-05,0.04716796055436134
7.05420970916748e-05,0.04729003086686134
7.111113518476486e-05,0.04741210117936134
7.167994044721127e-05,0.0476074144244194
7.224897854030132e-05,0.04782714322209358
7.281778380274773e-05,0.04804686829447746
7.338658906519413e-05,0.04824218153953552
7.395562715828419e-05,0.04836425185203552
7.452443242073059e-05,0.04838866740465164
7.5093237683177e-05,0.04831542447209358
7.566227577626705e-05,0.04814452677965164
7.623108103871346e-05,0.04794921353459358
7.679988630115986e-05,0.04775390028953552
7.736892439424992e-05,0.04755858704447746
7.793772965669632e-05,0.04738768935203552
7.850676774978638e-05,0.0472412034869194
7.907557301223278e-05,0.04716796055436134
7.964437827467918e-05,0.047143545001745224
8.021341636776924e-05,0.04719237610697746
8.078222163021564e-05,0.04726561903953552
8.135102689266205e-05,0.04731444641947746
8.19200649857521e-05,0.047338858246803284
8.248887024819851e-05,0.04731444641947746
8.305767551064491e-05,0.047216787934303284
8.362671360373497e-05,0.0471191331744194
8.419551886618137e-05,0.047021474689245224
8.476432412862778e-05,0.0468749925494194
8.533336222171783e-05,0.046752918511629105
8.590216748416424e-05,0.046704091131687164
8.64712055772543e-05,0.046704091131687164
8.70400108397007e-05,0.04667967930436134
8.76088161021471e-05,0.046606436371803284
8.817785419523716e-05,0.046533193439245224
8.874665945768356e-05,0.046459950506687164
8.931546472012997e-05,0.046411123126745224
8.988450281322002e-05,0.046313464641571045
9.045330807566643e-05,0.046142566949129105
9.102211333811283e-05,0.045874010771512985
9.159115143120289e-05,0.045605454593896866
9.215995669364929e-05,0.045458972454071045
9.27287619560957e-05,0.045410141348838806
9.329780004918575e-05,0.045483384281396866
9.386660531163216e-05,0.045629870146512985
9.443564340472221e-05,0.045849598944187164
9.500444866716862e-05,0.046069324016571045
9.557325392961502e-05,0.046215809881687164
9.614229202270508e-05,0.046264637261629105
9.671109728515148e-05,0.046289052814245224
9.727990254759789e-05,0.046264637261629105
9.784894064068794e-05,0.046264637261629105
9.841774590313435e-05,0.046362295746803284
9.898655116558075e-05,0.046557605266571045
9.955558925867081e-05,0.046850576996803284
0.00010012439452111721,0.04719237610697746
0.00010069343261420727,0.0474853441119194
0.00010126223787665367,0.0477294847369194
0.00010183104313910007,0.04794921353459358
0.00010240008123219013,0.04804686829447746
0.00010296888649463654,0.04802245646715164
0.00010353769175708294,0.04792479798197746
0.000104106729850173,0.04775390028953552
0.0001046755351126194,0.04765624180436134
0.0001052443403750658,0.04763182997703552
0.00010581337846815586,0.04768065735697746
0.00010638218373060226,0.04777831584215164
0.00010695098899304867,0.04787597060203552
0.00010752002708613873,0.04794921353459358
0.00010808883234858513,0.04794921353459358
0.00010865787044167519,0.04790038615465164
0.00010922667570412159,0.04777831584215164
0.00010979548096656799,0.04755858704447746
0.00011036451905965805,0.04726561903953552
0.00011093332432210445,0.04692381992936134
0.00011150212958455086,0.046606436371803284
0.00011207116767764091,0.046362295746803284
0.00011263997294008732,0.046215809881687164
0.00011320877820253372,0.046118151396512985
0.00011377781629562378,0.046118151396512985
0.00011434662155807018,0.046166982501745224
0.00011491542682051659,0.046240221709012985
0.00011548446491360664,0.046240221709012985
0.00011605327017605305,0.046093739569187164
0.0001166223082691431,0.045825183391571045
0.00011719111353158951,0.045605454593896866
0.00011775991879403591,0.045556627213954926
0.00011832895688712597,0.045654281973838806
0.00011889776214957237,0.045898426324129105
0.00011946656741201878,0.046191394329071045
0.00012003560550510883,0.046411123126745224
0.00012060441076755524,0.046508777886629105
0.00012117321603000164,0.046508777886629105
0.0001217422541230917,0.046484366059303284
0.0001223110593855381,0.046484366059303284
0.00012288009747862816,0.046533193439245224
0.00012344890274107456,0.046655263751745224
0.00012401770800352097,0.046826161444187164
0.00012458674609661102,0.047070302069187164
0.00012515555135905743,0.04729003086686134
0.00012572435662150383,0.0474853441119194
0.0001262933947145939,0.04758300259709358
0.0001268621999770403,0.04753417149186134
0.0001274310052394867,0.04743651673197746
0.00012800004333257675,0.04731444641947746
0.00012856884859502316,0.047143545001745224
0.00012913765385746956,0.046972647309303284
0.00012970669195055962,0.046850576996803284
0.00013027549721300602,0.046752918511629105
0.00013084453530609608,0.046704091131687164
0.00013141334056854248,0.046704091131687164
0.00013198214583098888,0.046704091131687164
0.00013255118392407894,0.046704091131687164
0.00013311998918652534,0.04667967930436134
0.00013368879444897175,0.046655263751745224
