Time,Voltage
0.0,0.04729003086686134
5.690380930900574e-07,0.04719237610697746
1.1380761861801147e-06,0.047021474689245224
1.7071142792701721e-06,0.046826161444187164
2.2761523723602295e-06,0.046582020819187164
2.8442591428756714e-06,0.046240221709012985
3.4132972359657288e-06,0.045654281973838806
3.982335329055786e-06,0.044873032718896866
4.5513734221458435e-06,0.04394529387354851
5.120411515235901e-06,0.04291990026831627
5.689449608325958e-06,0.04179684817790985
6.258487701416016e-06,0.04064938426017761
6.8265944719314575e-06,0.03955075144767761
7.395632565021515e-06,0.038549769669771194
7.964670658111572e-06,0.037744104862213135
8.53370875120163e-06,0.037084922194480896
9.102746844291687e-06,0.0365966372191906
9.671784937381744e-06,0.03625483810901642
1.0239891707897186e-05,0.03603511303663254
1.0808929800987244e-05,0.0358642153441906
1.1377967894077301e-05,0.03583979979157448
1.1947005987167358e-05,0.03608394041657448
1.2516044080257416e-05,0.03666988015174866
1.3085082173347473e-05,0.037573203444480896
1.3653188943862915e-05,0.038671839982271194
1.4222227036952972e-05,0.03981930390000343
1.479126513004303e-05,0.04091794043779373
1.5360303223133087e-05,0.04187009111046791
1.5929341316223145e-05,0.04267575964331627
1.6498379409313202e-05,0.04331052675843239
1.7066486179828644e-05,0.04387205094099045
1.76355242729187e-05,0.04445799067616463
1.820456236600876e-05,0.045117173343896866
1.8773600459098816e-05,0.045825183391571045
1.9342638552188873e-05,0.046459950506687164
1.991167664527893e-05,0.0469970628619194
2.0480714738368988e-05,0.04738768935203552
2.104882150888443e-05,0.0477294847369194
2.1617859601974487e-05,0.04807128384709358
2.2186897695064545e-05,0.04841308295726776
2.2755935788154602e-05,0.04868163913488388
2.332497388124466e-05,0.04887694865465164
2.3894011974334717e-05,0.04899902269244194
2.446211874485016e-05,0.04912109300494194
2.5031156837940216e-05,0.04924316331744194
2.5600194931030273e-05,0.04936523362994194
2.616923302412033e-05,0.04938964545726776
2.6738271117210388e-05,0.04931640625
2.7307309210300446e-05,0.0490722618997097
2.7875415980815887e-05,0.04877929389476776
2.8444454073905945e-05,0.04848632588982582
2.9013492166996002e-05,0.04829101264476776
2.958253026008606e-05,0.04819335415959358
3.0151568353176117e-05,0.04816893860697746
3.0720606446266174e-05,0.04816893860697746
3.1288713216781616e-05,0.04829101264476776
3.1857751309871674e-05,0.04853515326976776
3.242678940296173e-05,0.04877929389476776
3.299582749605179e-05,0.0489501915872097
3.3564865589141846e-05,0.04902343451976776
3.41339036822319e-05,0.04902343451976776
3.470294177532196e-05,0.04897460713982582
3.52710485458374e-05,0.04887694865465164
3.584008663892746e-05,0.04873046651482582
3.640912473201752e-05,0.04860839620232582
3.6978162825107574e-05,0.04853515326976776
3.754720091819763e-05,0.04841308295726776
3.811623901128769e-05,0.04824218153953552
3.868434578180313e-05,0.04802245646715164
3.925338387489319e-05,0.0478515550494194
3.9822421967983246e-05,0.04777831584215164
4.03914600610733e-05,0.04777831584215164
4.096049815416336e-05,0.04780272766947746
4.152953624725342e-05,0.04780272766947746
4.209764301776886e-05,0.04780272766947746
4.266668111085892e-05,0.04782714322209358
4.3235719203948975e-05,0.04794921353459358
4.380475729703903e-05,0.04812011122703552
4.437379539012909e-05,0.04838866740465164
4.494283348321915e-05,0.04863280802965164
4.551094025373459e-05,0.04877929389476776
4.6079978346824646e-05,0.04873046651482582
4.66490164399147e-05,0.04851073771715164
4.721805453300476e-05,0.04819335415959358
4.778709262609482e-05,0.0478515550494194
4.8356130719184875e-05,0.04763182997703552
4.892423748970032e-05,0.04755858704447746
4.9493275582790375e-05,0.0476074144244194
5.006231367588043e-05,0.0477294847369194
5.063135176897049e-05,0.04782714322209358
5.120038986206055e-05,0.04790038615465164
5.1769427955150604e-05,0.04794921353459358
5.233846604824066e-05,0.04802245646715164
5.2906572818756104e-05,0.04812011122703552
5.347561091184616e-05,0.0482177697122097
5.404464900493622e-05,0.0482177697122097
5.4613687098026276e-05,0.04816893860697746
5.518272519111633e-05,0.04812011122703552
5.575176328420639e-05,0.04802245646715164
5.631987005472183e-05,0.04790038615465164
5.688890814781189e-05,0.04775390028953552
5.745794624090195e-05,0.04758300259709358
5.8026984333992004e-05,0.047460928559303284
5.859602242708206e-05,0.04738768935203552
5.916506052017212e-05,0.0473632737994194
5.973316729068756e-05,0.047338858246803284
6.030220538377762e-05,0.04731444641947746
6.0871243476867676e-05,0.04729003086686134
6.144028156995773e-05,0.04726561903953552
6.200931966304779e-05,0.0472412034869194
6.257835775613785e-05,0.04719237610697746
6.314646452665329e-05,0.04716796055436134
6.371550261974335e-05,0.04716796055436134
6.42845407128334e-05,0.047216787934303284
6.485357880592346e-05,0.04738768935203552
6.542261689901352e-05,0.0476074144244194
6.599165499210358e-05,0.04780272766947746
6.656069308519363e-05,0.04794921353459358
6.712879985570908e-05,0.0480956993997097
6.769783794879913e-05,0.04826659709215164
6.826687604188919e-05,0.0484619103372097
6.883591413497925e-05,0.04860839620232582
6.94049522280693e-05,0.04873046651482582
6.997399032115936e-05,0.0488281212747097
7.05420970916748e-05,0.04892577975988388
7.111113518476486e-05,0.04899902269244194
7.168017327785492e-05,0.0490722618997097
7.224921137094498e-05,0.04909667745232582
7.281824946403503e-05,0.04909667745232582
7.338728755712509e-05,0.04904785007238388
7.395539432764053e-05,0.04897460713982582
7.452443242073059e-05,0.04892577975988388
7.509347051382065e-05,0.04887694865465164
7.56625086069107e-05,0.04885253682732582
7.623154670000076e-05,0.04885253682732582
7.680058479309082e-05,0.04885253682732582
7.736869156360626e-05,0.04877929389476776
7.793772965669632e-05,0.04855956509709358
7.850676774978638e-05,0.0482177697122097
7.907580584287643e-05,0.04782714322209358
7.964484393596649e-05,0.04743651673197746
8.021388202905655e-05,0.047143545001745224
8.07829201221466e-05,0.0469970628619194
8.135102689266205e-05,0.046972647309303284
8.19200649857521e-05,0.046972647309303284
8.248910307884216e-05,0.0469970628619194
8.305814117193222e-05,0.0471191331744194
8.362717926502228e-05,0.04731444641947746
8.419621735811234e-05,0.04755858704447746
8.476432412862778e-05,0.0478515550494194
8.533336222171783e-05,0.04812011122703552
8.590240031480789e-05,0.04829101264476776
8.647143840789795e-05,0.04831542447209358
8.7040476500988e-05,0.04824218153953552
8.760951459407806e-05,0.04804686829447746
8.81776213645935e-05,0.04777831584215164
8.874665945768356e-05,0.04753417149186134
8.931569755077362e-05,0.04743651673197746
8.988473564386368e-05,0.047460928559303284
9.045377373695374e-05,0.0476074144244194
9.102281183004379e-05,0.0478515550494194
9.159091860055923e-05,0.04812011122703552
9.215995669364929e-05,0.04836425185203552
9.272899478673935e-05,0.04843749478459358
9.32980328798294e-05,0.04831542447209358
9.386707097291946e-05,0.04804686829447746
9.443610906600952e-05,0.04768065735697746
9.500514715909958e-05,0.0473632737994194
9.557325392961502e-05,0.047094717621803284
9.614229202270508e-05,0.04692381992936134
9.671133011579514e-05,0.0468749925494194
9.728036820888519e-05,0.04692381992936134
9.784940630197525e-05,0.047070302069187164
9.841844439506531e-05,0.04731444641947746
9.898655116558075e-05,0.04765624180436134
9.955558925867081e-05,0.04807128384709358
0.00010012462735176086,0.0484619103372097
0.00010069366544485092,0.04875487834215164
0.00010126270353794098,0.04885253682732582
0.00010183174163103104,0.04885253682732582
0.00010239984840154648,0.04875487834215164
0.00010296888649463654,0.04865722358226776
0.00010353792458772659,0.04853515326976776
0.00010410696268081665,0.04843749478459358
0.00010467600077390671,0.04831542447209358
0.00010524503886699677,0.0482177697122097
0.00010581314563751221,0.0480956993997097
0.00010638218373060226,0.04799804091453552
0.00010695122182369232,0.04790038615465164
0.00010752025991678238,0.04780272766947746
0.00010808929800987244,0.04775390028953552
0.0001086583361029625,0.04780272766947746
0.00010922737419605255,0.0479736253619194
0.00010979548096656799,0.0482177697122097
0.00011036451905965805,0.04848632588982582
0.00011093355715274811,0.04868163913488388
0.00011150259524583817,0.04880370944738388
0.00011207163333892822,0.04880370944738388
0.00011264067143201828,0.0487060509622097
0.00011320877820253372,0.04855956509709358
0.00011377781629562378,0.04838866740465164
0.00011434685438871384,0.04826659709215164
0.0001149158924818039,0.0482177697122097
0.00011548493057489395,0.04831542447209358
0.00011605396866798401,0.0484619103372097
0.00011662207543849945,0.04865722358226776
0.00011719111353158951,0.0488281212747097
0.00011776015162467957,0.0489501915872097
0.00011832918971776962,0.04899902269244194
0.00011889822781085968,0.04902343451976776
0.00011946726590394974,0.04909667745232582
0.00012003537267446518,0.04921874776482582
0.00012060441076755524,0.04934081807732582
0.0001211734488606453,0.04934081807732582
0.00012174248695373535,0.04926757514476776
0.0001223115250468254,0.04912109300494194
0.00012288056313991547,0.0489501915872097
0.00012344960123300552,0.04880370944738388
0.00012401770800352097,0.04865722358226776
0.00012458674609661102,0.04848632588982582
0.00012515578418970108,0.0483398400247097
0.00012572482228279114,0.04824218153953552
0.0001262938603758812,0.0482177697122097
0.00012686289846897125,0.0482177697122097
0.0001274310052394867,0.0482177697122097
0.00012800004333257675,0.04829101264476776
0.0001285690814256668,0.04838866740465164
0.00012913811951875687,0.04851073771715164
0.00012970715761184692,0.04863280802965164
0.00013027619570493698,0.04875487834215164
0.00013084430247545242,0.0488281212747097
0.00013141334056854248,0.04877929389476776
0.00013198237866163254,0.04868163913488388
0.0001325514167547226,0.0485839806497097
0.00013312045484781265,0.04848632588982582
0.0001336894929409027,0.04841308295726776
