Time,Voltage
0.0,0.046606436371803284
5.736947059631348e-07,0.046435534954071045
1.1399388313293457e-06,0.046313464641571045
1.7136335372924805e-06,0.046264637261629105
2.2798776626586914e-06,0.046240221709012985
2.8461217880249023e-06,0.046240221709012985
3.419816493988037e-06,0.046191394329071045
3.986060619354248e-06,0.046142566949129105
4.552304744720459e-06,0.046069324016571045
5.125999450683594e-06,0.045874010771512985
5.692243576049805e-06,0.045458972454071045
6.258487701416016e-06,0.044677719473838806
6.83218240737915e-06,0.04355466738343239
7.398426532745361e-06,0.04226071760058403
7.964670658111572e-06,0.04096677154302597
8.538365364074707e-06,0.039868131279945374
9.104609489440918e-06,0.039086878299713135
9.678304195404053e-06,0.038525354117155075
1.0244548320770264e-05,0.038110315799713135
1.0810792446136475e-05,0.037792932242155075
1.138448715209961e-05,0.037475548684597015
1.195073127746582e-05,0.037231408059597015
1.2516975402832031e-05,0.03706050664186478
1.3090670108795166e-05,0.037084922194480896
1.3656914234161377e-05,0.037280235439538956
1.4223158359527588e-05,0.037622030824422836
1.4796853065490723e-05,0.038085900247097015
1.5363097190856934e-05,0.038476526737213135
1.5929341316223145e-05,0.038647428154945374
1.650303602218628e-05,0.038525354117155075
1.706928014755249e-05,0.038183558732271194
1.76355242729187e-05,0.037792932242155075
1.8209218978881836e-05,0.037451133131980896
1.8775463104248047e-05,0.03718257695436478
1.934915781021118e-05,0.03706050664186478
1.9915401935577393e-05,0.03703609108924866
2.0481646060943604e-05,0.037011679261922836
2.1055340766906738e-05,0.03693843632936478
2.162158489227295e-05,0.036767538636922836
2.218782901763916e-05,0.03654780983924866
2.2761523723602295e-05,0.03630366921424866
2.3327767848968506e-05,0.03605952858924866
2.3894011974334717e-05,0.0357421413064003
2.446770668029785e-05,0.03542476147413254
2.5033950805664062e-05,0.0352538600564003
2.5600194931030273e-05,0.03527827560901642
2.6173889636993408e-05,0.03542476147413254
2.674013376235962e-05,0.03554683178663254
2.7313828468322754e-05,0.03559565916657448
2.7880072593688965e-05,0.0354980006814003
2.8446316719055176e-05,0.0353759303689003
2.902001142501831e-05,0.03527827560901642
2.958625555038452e-05,0.03527827560901642
3.0152499675750732e-05,0.03544917330145836
3.072619438171387e-05,0.03576655685901642
3.129243850708008e-05,0.03615718334913254
3.185868263244629e-05,0.03649898245930672
3.2432377338409424e-05,0.03666988015174866
3.2998621463775635e-05,0.03666988015174866
3.3564865589141846e-05,0.03654780983924866
3.413856029510498e-05,0.03632808476686478
3.470480442047119e-05,0.03608394041657448
3.52710485458374e-05,0.03593745827674866
3.584474325180054e-05,0.03593745827674866
3.641098737716675e-05,0.03603511303663254
3.698468208312988e-05,0.03615718334913254
3.7550926208496094e-05,0.03632808476686478
3.8117170333862305e-05,0.0365966372191906
3.869086503982544e-05,0.036840781569480896
3.925710916519165e-05,0.03703609108924866
3.982335329055786e-05,0.03715816140174866
4.0397047996520996e-05,0.037231408059597015
4.096329212188721e-05,0.037255819886922836
4.152953624725342e-05,0.037255819886922836
4.210323095321655e-05,0.037206992506980896
4.2669475078582764e-05,0.03710933402180672
4.3235719203948975e-05,0.03698726370930672
4.380941390991211e-05,0.03686519339680672
4.437565803527832e-05,0.03674312308430672
4.4949352741241455e-05,0.03666988015174866
4.5515596866607666e-05,0.03664546459913254
4.608184099197388e-05,0.03666988015174866
4.665553569793701e-05,0.03666988015174866
4.722177982330322e-05,0.03662105277180672
4.7788023948669434e-05,0.0364745669066906
4.836171865463257e-05,0.03618159890174866
4.892796277999878e-05,0.03579097241163254
4.949420690536499e-05,0.03535151854157448
5.0067901611328125e-05,0.03503413498401642
5.0634145736694336e-05,0.03481440618634224
5.120038986206055e-05,0.03474116325378418
5.177408456802368e-05,0.0347655788064003
5.234032869338989e-05,0.03483881801366806
5.2906572818756104e-05,0.03493647649884224
5.348026752471924e-05,0.03503413498401642
5.404651165008545e-05,0.0351317897439003
5.4620206356048584e-05,0.03522944450378418
5.5186450481414795e-05,0.03532710298895836
5.5752694606781006e-05,0.03547358885407448
5.632638931274414e-05,0.03576655685901642
5.689263343811035e-05,0.03615718334913254
5.745887756347656e-05,0.03664546459913254
5.80325722694397e-05,0.03715816140174866
5.859881639480591e-05,0.037744104862213135
5.916506052017212e-05,0.038500942289829254
5.9738755226135254e-05,0.039428677409887314
6.0304999351501465e-05,0.04040524363517761
6.0871243476867676e-05,0.04130856692790985
6.144493818283081e-05,0.04206540435552597
6.201118230819702e-05,0.04267575964331627
6.258487701416016e-05,0.04318845644593239
6.315112113952637e-05,0.04357908293604851
6.371736526489258e-05,0.04384763911366463
6.429105997085571e-05,0.04401853680610657
6.485730409622192e-05,0.04409177973866463
6.542354822158813e-05,0.04414060711860657
6.599724292755127e-05,0.04426267743110657
6.656348705291748e-05,0.04453123360872269
6.712973117828369e-05,0.044873032718896866
6.770342588424683e-05,0.045190416276454926
6.826967000961304e-05,0.045483384281396866
6.883591413497925e-05,0.045678697526454926
6.940960884094238e-05,0.045800767838954926
6.99758529663086e-05,0.045922838151454926
7.05420970916748e-05,0.046069324016571045
7.111579179763794e-05,0.046191394329071045
7.168203592300415e-05,0.046215809881687164
7.225573062896729e-05,0.046166982501745224
7.28219747543335e-05,0.046044908463954926
7.338821887969971e-05,0.045922838151454926
7.396191358566284e-05,0.045800767838954926
7.452815771102905e-05,0.045776356011629105
7.509440183639526e-05,0.045776356011629105
7.56680965423584e-05,0.045776356011629105
7.623434066772461e-05,0.045800767838954926
7.680058479309082e-05,0.045898426324129105
7.737427949905396e-05,0.046044908463954926
7.794052362442017e-05,0.046215809881687164
7.850676774978638e-05,0.046337880194187164
7.908046245574951e-05,0.046459950506687164
7.964670658111572e-05,0.046582020819187164
8.022040128707886e-05,0.046655263751745224
8.078664541244507e-05,0.046728506684303284
8.135288953781128e-05,0.046752918511629105
8.192658424377441e-05,0.046777334064245224
8.249282836914062e-05,0.04680174961686134
8.305907249450684e-05,0.04680174961686134
8.363276720046997e-05,0.046826161444187164
8.419901132583618e-05,0.0468749925494194
8.476525545120239e-05,0.0469970628619194
8.533895015716553e-05,0.0471191331744194
8.590519428253174e-05,0.047216787934303284
8.647143840789795e-05,0.04729003086686134
8.704513311386108e-05,0.04729003086686134
8.76113772392273e-05,0.04729003086686134
8.81776213645935e-05,0.04729003086686134
8.875131607055664e-05,0.047338858246803284
8.931756019592285e-05,0.0473632737994194
8.989125490188599e-05,0.04731444641947746
9.04574990272522e-05,0.04719237610697746
9.102374315261841e-05,0.0469970628619194
9.159743785858154e-05,0.046777334064245224
9.216368198394775e-05,0.046533193439245224
9.272992610931396e-05,0.046313464641571045
9.33036208152771e-05,0.046044908463954926
9.386986494064331e-05,0.045776356011629105
9.443610906600952e-05,0.045581042766571045
9.500980377197266e-05,0.045483384281396866
9.557604789733887e-05,0.045483384281396866
9.614229202270508e-05,0.045605454593896866
9.671598672866821e-05,0.045800767838954926
9.728223085403442e-05,0.046069324016571045
9.785592555999756e-05,0.046435534954071045
9.842216968536377e-05,0.046899404376745224
9.898841381072998e-05,0.0473632737994194
9.956210851669312e-05,0.04770507290959358
0.00010012835264205933,0.04787597060203552
0.00010069459676742554,0.04775390028953552
0.00010126829147338867,0.0473632737994194
0.00010183453559875488,0.046826161444187164
0.0001024007797241211,0.046264637261629105
0.00010297447443008423,0.045800767838954926
0.00010354071855545044,0.045483384281396866
0.00010410696268081665,0.045312486588954926
0.00010468065738677979,0.045312486588954926
0.000105246901512146,0.045458972454071045
0.00010581314563751221,0.045678697526454926
0.00010638684034347534,0.045947253704071045
0.00010695308446884155,0.046215809881687164
0.00010752677917480469,0.046459950506687164
0.0001080930233001709,0.04667967930436134
0.00010865926742553711,0.046899404376745224
0.00010923296213150024,0.047070302069187164
0.00010979920625686646,0.04719237610697746
0.00011036545038223267,0.047216787934303284
0.0001109391450881958,0.04716796055436134
0.00011150538921356201,0.04716796055436134
0.00011207163333892822,0.04716796055436134
0.00011264532804489136,0.0472412034869194
0.00011321157217025757,0.047338858246803284
0.00011377781629562378,0.04743651673197746
0.00011435151100158691,0.0474853441119194
0.00011491775512695312,0.04750975966453552
0.00011549144983291626,0.04750975966453552
0.00011605769395828247,0.04758300259709358
0.00011662393808364868,0.0477294847369194
0.00011719763278961182,0.04792479798197746
0.00011776387691497803,0.04814452677965164
0.00011833012104034424,0.04829101264476776
0.00011890381574630737,0.0483398400247097
0.00011947005987167358,0.0483398400247097
0.0001200363039970398,0.04829101264476776
0.00012060999870300293,0.0482177697122097
0.00012117624282836914,0.04814452677965164
0.00012174248695373535,0.04807128384709358
0.00012231618165969849,0.04799804091453552
0.0001228824257850647,0.04787597060203552
0.0001234486699104309,0.04770507290959358
0.00012402236461639404,0.047460928559303284
0.00012458860874176025,0.04719237610697746
0.0001251623034477234,0.04692381992936134
0.0001257285475730896,0.046704091131687164
0.0001262947916984558,0.046557605266571045
0.00012686848640441895,0.046459950506687164
0.00012743473052978516,0.046362295746803284
0.00012800097465515137,0.046264637261629105
0.0001285746693611145,0.046191394329071045
0.0001291409134864807,0.046166982501745224
0.00012970715761184692,0.046191394329071045
0.00013028085231781006,0.046215809881687164
0.00013084709644317627,0.046264637261629105
0.00013141334056854248,0.046240221709012985
0.00013198703527450562,0.046191394329071045
0.00013255327939987183,0.046166982501745224
0.00013312697410583496,0.046093739569187164
0.00013369321823120117,0.046069324016571045
