Time,Voltage
0.0,0.04814452677965164
5.662441253662109e-07,0.04794921353459358
1.1399388313293457e-06,0.04780272766947746
1.7061829566955566e-06,0.04768065735697746
2.2724270820617676e-06,0.04765624180436134
2.8461217880249023e-06,0.04768065735697746
3.4123659133911133e-06,0.04770507290959358
3.986060619354248e-06,0.04765624180436134
4.552304744720459e-06,0.04755858704447746
5.11854887008667e-06,0.04738768935203552
5.692243576049805e-06,0.047216787934303284
6.258487701416016e-06,0.0471191331744194
6.8247318267822266e-06,0.0471191331744194
7.398426532745361e-06,0.0472412034869194
7.964670658111572e-06,0.0474853441119194
8.530914783477783e-06,0.04780272766947746
9.104609489440918e-06,0.04812011122703552
9.670853614807129e-06,0.04841308295726776
1.023709774017334e-05,0.04855956509709358
1.0810792446136475e-05,0.0485839806497097
1.1377036571502686e-05,0.0484619103372097
1.195073127746582e-05,0.04824218153953552
1.2516975402832031e-05,0.04799804091453552
1.3083219528198242e-05,0.04777831584215164
1.3656914234161377e-05,0.0476074144244194
1.4223158359527588e-05,0.04750975966453552
1.4789402484893799e-05,0.04738768935203552
1.5363097190856934e-05,0.04726561903953552
1.5929341316223145e-05,0.04716796055436134
1.6495585441589355e-05,0.047143545001745224
1.706928014755249e-05,0.04716796055436134
1.76355242729187e-05,0.04726561903953552
1.8201768398284912e-05,0.04750975966453552
1.8775463104248047e-05,0.04787597060203552
1.9341707229614258e-05,0.04824218153953552
1.990795135498047e-05,0.04860839620232582
2.0481646060943604e-05,0.04892577975988388
2.1047890186309814e-05,0.04916992038488388
2.162158489227295e-05,0.04924316331744194
2.218782901763916e-05,0.04914550483226776
2.275407314300537e-05,0.04897460713982582
2.3327767848968506e-05,0.04880370944738388
2.3894011974334717e-05,0.0487060509622097
2.4460256099700928e-05,0.04868163913488388
2.5033950805664062e-05,0.04868163913488388
2.5600194931030273e-05,0.04865722358226776
2.6166439056396484e-05,0.04863280802965164
2.674013376235962e-05,0.04863280802965164
2.730637788772583e-05,0.04860839620232582
2.787262201309204e-05,0.04865722358226776
2.8446316719055176e-05,0.04873046651482582
2.9012560844421387e-05,0.0488281212747097
2.958625555038452e-05,0.04892577975988388
3.0152499675750732e-05,0.04902343451976776
3.071874380111694e-05,0.04916992038488388
3.129243850708008e-05,0.0494384765625
3.185868263244629e-05,0.04973144456744194
3.24249267578125e-05,0.05000000074505806
3.2998621463775635e-05,0.05019531399011612
3.3564865589141846e-05,0.05034179985523224
3.413110971450806e-05,0.05043945461511612
3.470480442047119e-05,0.05056152492761612
3.52710485458374e-05,0.0506591834127903
3.583729267120361e-05,0.0506591834127903
3.641098737716675e-05,0.0505371131002903
3.697723150253296e-05,0.05031738430261612
3.754347562789917e-05,0.05007324367761612
3.8117170333862305e-05,0.0498046875
3.8683414459228516e-05,0.04953613132238388
3.925710916519165e-05,0.04926757514476776
3.982335329055786e-05,0.04902343451976776
4.038959741592407e-05,0.04877929389476776
4.096329212188721e-05,0.04855956509709358
4.152953624725342e-05,0.04843749478459358
4.209578037261963e-05,0.0483398400247097
4.2669475078582764e-05,0.04824218153953552
4.3235719203948975e-05,0.0480956993997097
4.3801963329315186e-05,0.04792479798197746
4.437565803527832e-05,0.04775390028953552
4.494190216064453e-05,0.0476074144244194
4.550814628601074e-05,0.04750975966453552
4.608184099197388e-05,0.04743651673197746
4.664808511734009e-05,0.04741210117936134
4.722177982330322e-05,0.04738768935203552
4.7788023948669434e-05,0.04741210117936134
4.8354268074035645e-05,0.04750975966453552
4.892796277999878e-05,0.04758300259709358
4.949420690536499e-05,0.04768065735697746
5.00604510307312e-05,0.04775390028953552
5.0634145736694336e-05,0.04782714322209358
5.120038986206055e-05,0.04794921353459358
5.176663398742676e-05,0.04814452677965164
5.234032869338989e-05,0.04838866740465164
5.2906572818756104e-05,0.04868163913488388
5.3472816944122314e-05,0.0489501915872097
5.404651165008545e-05,0.0491943359375
5.461275577545166e-05,0.04931640625
5.517899990081787e-05,0.04931640625
5.5752694606781006e-05,0.04921874776482582
5.631893873214722e-05,0.0490722618997097
5.689263343811035e-05,0.04887694865465164
5.745887756347656e-05,0.04865722358226776
5.8025121688842773e-05,0.0484619103372097
5.859881639480591e-05,0.04836425185203552
5.916506052017212e-05,0.04829101264476776
5.973130464553833e-05,0.04824218153953552
6.0304999351501465e-05,0.04816893860697746
6.0871243476867676e-05,0.04812011122703552
6.143748760223389e-05,0.04804686829447746
6.201118230819702e-05,0.04792479798197746
6.257742643356323e-05,0.04775390028953552
6.314367055892944e-05,0.04750975966453552
6.371736526489258e-05,0.04731444641947746
6.428360939025879e-05,0.047094717621803284
6.485730409622192e-05,0.046948231756687164
6.542354822158813e-05,0.04680174961686134
6.598979234695435e-05,0.046655263751745224
6.656348705291748e-05,0.046533193439245224
6.712973117828369e-05,0.046508777886629105
6.76959753036499e-05,0.046630848199129105
6.826967000961304e-05,0.046728506684303284
6.883591413497925e-05,0.046752918511629105
6.940215826034546e-05,0.046704091131687164
6.99758529663086e-05,0.046630848199129105
7.05420970916748e-05,0.046606436371803284
7.110834121704102e-05,0.046630848199129105
7.168203592300415e-05,0.04680174961686134
7.224828004837036e-05,0.0471191331744194
7.281452417373657e-05,0.04758300259709358
7.338821887969971e-05,0.0480956993997097
7.395446300506592e-05,0.04848632588982582
7.452815771102905e-05,0.04865722358226776
7.509440183639526e-05,0.04855956509709358
7.566064596176147e-05,0.0483398400247097
7.623434066772461e-05,0.04804686829447746
7.680058479309082e-05,0.0477294847369194
7.736682891845703e-05,0.047460928559303284
7.794052362442017e-05,0.04716796055436134
7.850676774978638e-05,0.04692381992936134
7.907301187515259e-05,0.046728506684303284
7.964670658111572e-05,0.046655263751745224
8.021295070648193e-05,0.046704091131687164
8.077919483184814e-05,0.046850576996803284
8.135288953781128e-05,0.047070302069187164
8.191913366317749e-05,0.047338858246803284
8.249282836914062e-05,0.0476074144244194
8.305907249450684e-05,0.04782714322209358
8.362531661987305e-05,0.04802245646715164
8.419901132583618e-05,0.04816893860697746
8.476525545120239e-05,0.04824218153953552
8.53314995765686e-05,0.04826659709215164
8.590519428253174e-05,0.04826659709215164
8.647143840789795e-05,0.04829101264476776
8.703768253326416e-05,0.0483398400247097
8.76113772392273e-05,0.04841308295726776
8.81776213645935e-05,0.0484619103372097
8.874386548995972e-05,0.04841308295726776
8.931756019592285e-05,0.04831542447209358
8.988380432128906e-05,0.04816893860697746
9.045004844665527e-05,0.04807128384709358
9.102374315261841e-05,0.0479736253619194
9.158998727798462e-05,0.04794921353459358
9.216368198394775e-05,0.04790038615465164
9.272992610931396e-05,0.04777831584215164
9.329617023468018e-05,0.0476074144244194
9.386986494064331e-05,0.04750975966453552
9.443610906600952e-05,0.0474853441119194
9.500235319137573e-05,0.04750975966453552
9.557604789733887e-05,0.04753417149186134
9.614229202270508e-05,0.04753417149186134
9.670853614807129e-05,0.047460928559303284
9.728223085403442e-05,0.04729003086686134
9.784847497940063e-05,0.047021474689245224
9.841471910476685e-05,0.046704091131687164
9.898841381072998e-05,0.046386707574129105
9.955465793609619e-05,0.046118151396512985
0.00010012835264205933,0.045996081084012985
0.00010069459676742554,0.046020496636629105
0.00010126084089279175,0.046166982501745224
0.00010183453559875488,0.046411123126745224
0.0001024007797241211,0.046728506684303284
0.0001029670238494873,0.04704589024186134
0.00010354071855545044,0.047338858246803284
0.00010410696268081665,0.04758300259709358
0.00010467320680618286,0.04777831584215164
0.000105246901512146,0.04790038615465164
0.00010581314563751221,0.0479736253619194
0.00010637938976287842,0.04794921353459358
0.00010695308446884155,0.04790038615465164
0.00010751932859420776,0.0478515550494194
0.00010808557271957397,0.0478515550494194
0.00010865926742553711,0.04787597060203552
0.00010922551155090332,0.0478515550494194
0.00010979920625686646,0.04782714322209358
0.00011036545038223267,0.04777831584215164
0.00011093169450759888,0.04768065735697746
0.00011150538921356201,0.04753417149186134
0.00011207163333892822,0.04729003086686134
0.00011263787746429443,0.04704589024186134
0.00011321157217025757,0.0468749925494194
0.00011377781629562378,0.046850576996803284
0.00011434406042098999,0.0469970628619194
0.00011491775512695312,0.04729003086686134
0.00011548399925231934,0.04763182997703552
0.00011605024337768555,0.04787597060203552
0.00011662393808364868,0.0479736253619194
0.00011719018220901489,0.0479736253619194
0.00011776387691497803,0.04790038615465164
0.00011833012104034424,0.04775390028953552
0.00011889636516571045,0.047460928559303284
0.00011947005987167358,0.047070302069187164
0.0001200363039970398,0.046630848199129105
0.000120602548122406,0.046191394329071045
0.00012117624282836914,0.045849598944187164
0.00012174248695373535,0.045654281973838806
0.00012230873107910156,0.045605454593896866
0.0001228824257850647,0.045703113079071045
0.0001234486699104309,0.045922838151454926
0.00012401491403579712,0.046215809881687164
0.00012458860874176025,0.046557605266571045
0.00012515485286712646,0.046972647309303284
0.0001257285475730896,0.04741210117936134
0.0001262947916984558,0.04782714322209358
0.00012686103582382202,0.0482177697122097
0.00012743473052978516,0.04848632588982582
0.00012800097465515137,0.0485839806497097
0.00012856721878051758,0.04853515326976776
0.0001291409134864807,0.04836425185203552
0.00012970715761184692,0.04814452677965164
0.00013027340173721313,0.0479736253619194
0.00013084709644317627,0.0478515550494194
0.00013141334056854248,0.0477294847369194
0.0001319795846939087,0.0476074144244194
0.00013255327939987183,0.0474853441119194
0.00013311952352523804,0.0473632737994194
0.00013368576765060425,0.0472412034869194
