Time,Voltage
0.0,0.04729003086686134
5.662441253662109e-07,0.04731444641947746
1.1399388313293457e-06,0.04729003086686134
1.7061829566955566e-06,0.047216787934303284
2.2798776626586914e-06,0.047094717621803284
2.8461217880249023e-06,0.046777334064245224
3.4123659133911133e-06,0.046191394329071045
3.986060619354248e-06,0.045288071036338806
4.552304744720459e-06,0.04414060711860657
5.11854887008667e-06,0.04284665733575821
5.692243576049805e-06,0.04157712310552597
6.258487701416016e-06,0.04042965918779373
6.8247318267822266e-06,0.039428677409887314
7.398426532745361e-06,0.038525354117155075
7.964670658111572e-06,0.037695273756980896
8.530914783477783e-06,0.036962851881980896
9.104609489440918e-06,0.03630366921424866
9.670853614807129e-06,0.03588862717151642
1.023709774017334e-05,0.03579097241163254
1.0810792446136475e-05,0.0359862856566906
1.1377036571502686e-05,0.03625483810901642
1.195073127746582e-05,0.03645015507936478
1.2516975402832031e-05,0.03649898245930672
1.3083219528198242e-05,0.03640132397413254
1.3656914234161377e-05,0.03615718334913254
1.4223158359527588e-05,0.03583979979157448
1.4789402484893799e-05,0.03557124361395836
1.5363097190856934e-05,0.0354980006814003
1.5929341316223145e-05,0.03557124361395836
1.6495585441589355e-05,0.03588862717151642
1.706928014755249e-05,0.03649898245930672
1.76355242729187e-05,0.03742671757936478
1.8201768398284912e-05,0.038574181497097015
1.8775463104248047e-05,0.03989254683256149
1.9341707229614258e-05,0.04125973954796791
1.9915401935577393e-05,0.04260251671075821
2.0481646060943604e-05,0.04372556507587433
2.1047890186309814e-05,0.04458006098866463
2.162158489227295e-05,0.045117173343896866
2.218782901763916e-05,0.045458972454071045
2.275407314300537e-05,0.045654281973838806
2.3327767848968506e-05,0.045800767838954926
2.3894011974334717e-05,0.046020496636629105
2.4460256099700928e-05,0.046313464641571045
2.5033950805664062e-05,0.046630848199129105
2.5600194931030273e-05,0.046899404376745224
2.6166439056396484e-05,0.047094717621803284
2.674013376235962e-05,0.0472412034869194
2.730637788772583e-05,0.04731444641947746
2.787262201309204e-05,0.04731444641947746
2.8446316719055176e-05,0.04726561903953552
2.9012560844421387e-05,0.04719237610697746
2.958625555038452e-05,0.0471191331744194
3.0152499675750732e-05,0.0471191331744194
3.071874380111694e-05,0.04716796055436134
3.129243850708008e-05,0.04731444641947746
3.185868263244629e-05,0.04750975966453552
3.24249267578125e-05,0.04775390028953552
3.2998621463775635e-05,0.04794921353459358
3.3564865589141846e-05,0.04807128384709358
3.413110971450806e-05,0.04812011122703552
3.470480442047119e-05,0.04807128384709358
3.52710485458374e-05,0.04802245646715164
3.583729267120361e-05,0.04792479798197746
3.641098737716675e-05,0.04780272766947746
3.697723150253296e-05,0.04763182997703552
3.7550926208496094e-05,0.04750975966453552
3.8117170333862305e-05,0.047460928559303284
3.8683414459228516e-05,0.0474853441119194
3.925710916519165e-05,0.0476074144244194
3.982335329055786e-05,0.04777831584215164
4.038959741592407e-05,0.04792479798197746
4.096329212188721e-05,0.04794921353459358
4.152953624725342e-05,0.04790038615465164
4.209578037261963e-05,0.04782714322209358
4.2669475078582764e-05,0.0477294847369194
4.3235719203948975e-05,0.04768065735697746
4.3801963329315186e-05,0.04763182997703552
4.437565803527832e-05,0.04763182997703552
4.494190216064453e-05,0.04765624180436134
4.550814628601074e-05,0.04765624180436134
4.608184099197388e-05,0.0476074144244194
4.664808511734009e-05,0.04750975966453552
4.722177982330322e-05,0.04741210117936134
4.7788023948669434e-05,0.04731444641947746
4.8354268074035645e-05,0.0472412034869194
4.892796277999878e-05,0.0472412034869194
4.949420690536499e-05,0.0472412034869194
5.00604510307312e-05,0.04726561903953552
5.0634145736694336e-05,0.04726561903953552
5.120038986206055e-05,0.04716796055436134
5.176663398742676e-05,0.04704589024186134
5.234032869338989e-05,0.0468749925494194
5.2906572818756104e-05,0.046704091131687164
5.3472816944122314e-05,0.046557605266571045
5.404651165008545e-05,0.046459950506687164
5.461275577545166e-05,0.046411123126745224
5.5186450481414795e-05,0.046411123126745224
5.5752694606781006e-05,0.046459950506687164
5.631893873214722e-05,0.046533193439245224
5.689263343811035e-05,0.046582020819187164
5.745887756347656e-05,0.04667967930436134
5.8025121688842773e-05,0.046826161444187164
5.859881639480591e-05,0.046972647309303284
5.916506052017212e-05,0.0471191331744194
5.973130464553833e-05,0.04729003086686134
6.0304999351501465e-05,0.047460928559303284
6.0871243476867676e-05,0.04758300259709358
6.143748760223389e-05,0.0476074144244194
6.201118230819702e-05,0.04750975966453552
6.257742643356323e-05,0.047338858246803284
6.315112113952637e-05,0.04716796055436134
6.371736526489258e-05,0.047070302069187164
6.428360939025879e-05,0.0469970628619194
6.485730409622192e-05,0.0469970628619194
6.542354822158813e-05,0.047021474689245224
6.598979234695435e-05,0.047021474689245224
6.656348705291748e-05,0.046948231756687164
6.712973117828369e-05,0.046777334064245224
6.76959753036499e-05,0.046557605266571045
6.826967000961304e-05,0.046411123126745224
6.883591413497925e-05,0.046411123126745224
6.940215826034546e-05,0.046606436371803284
6.99758529663086e-05,0.046899404376745224
7.05420970916748e-05,0.047143545001745224
7.110834121704102e-05,0.047338858246803284
7.168203592300415e-05,0.04743651673197746
7.224828004837036e-05,0.04750975966453552
7.28219747543335e-05,0.04750975966453552
7.338821887969971e-05,0.04743651673197746
7.395446300506592e-05,0.04731444641947746
7.452815771102905e-05,0.04719237610697746
7.509440183639526e-05,0.04716796055436134
7.566064596176147e-05,0.04719237610697746
7.623434066772461e-05,0.04729003086686134
7.680058479309082e-05,0.0473632737994194
7.736682891845703e-05,0.04743651673197746
7.794052362442017e-05,0.04743651673197746
7.850676774978638e-05,0.04738768935203552
7.907301187515259e-05,0.04726561903953552
7.964670658111572e-05,0.047094717621803284
8.021295070648193e-05,0.046899404376745224
8.078664541244507e-05,0.046752918511629105
8.135288953781128e-05,0.04667967930436134
8.191913366317749e-05,0.046704091131687164
8.249282836914062e-05,0.04680174961686134
8.305907249450684e-05,0.046948231756687164
8.362531661987305e-05,0.047143545001745224
8.419901132583618e-05,0.04738768935203552
8.476525545120239e-05,0.04763182997703552
8.53314995765686e-05,0.0478515550494194
8.590519428253174e-05,0.0479736253619194
8.647143840789795e-05,0.04802245646715164
8.703768253326416e-05,0.0479736253619194
8.76113772392273e-05,0.0478515550494194
8.81776213645935e-05,0.04770507290959358
8.874386548995972e-05,0.0474853441119194
8.931756019592285e-05,0.04729003086686134
8.988380432128906e-05,0.04719237610697746
9.04574990272522e-05,0.047216787934303284
9.102374315261841e-05,0.04729003086686134
9.158998727798462e-05,0.04738768935203552
9.216368198394775e-05,0.047460928559303284
9.272992610931396e-05,0.047460928559303284
9.329617023468018e-05,0.04743651673197746
9.386986494064331e-05,0.04743651673197746
9.443610906600952e-05,0.0474853441119194
9.500235319137573e-05,0.04755858704447746
9.557604789733887e-05,0.04763182997703552
9.614229202270508e-05,0.04777831584215164
9.670853614807129e-05,0.04792479798197746
9.728223085403442e-05,0.04812011122703552
9.784847497940063e-05,0.04829101264476776
9.842216968536377e-05,0.04836425185203552
9.898841381072998e-05,0.04831542447209358
9.955465793609619e-05,0.04816893860697746
0.00010012835264205933,0.04799804091453552
0.00010069459676742554,0.04790038615465164
0.00010126084089279175,0.04790038615465164
0.00010183453559875488,0.04787597060203552
0.0001024007797241211,0.04780272766947746
0.0001029670238494873,0.04770507290959358
0.00010354071855545044,0.04758300259709358
0.00010410696268081665,0.04750975966453552
0.00010467320680618286,0.04750975966453552
0.000105246901512146,0.0474853441119194
0.00010581314563751221,0.04741210117936134
0.00010637938976287842,0.04729003086686134
0.00010695308446884155,0.047070302069187164
0.00010751932859420776,0.046826161444187164
0.0001080930233001709,0.046630848199129105
0.00010865926742553711,0.046533193439245224
0.00010922551155090332,0.046533193439245224
0.00010979920625686646,0.046582020819187164
0.00011036545038223267,0.046630848199129105
0.00011093169450759888,0.046655263751745224
0.00011150538921356201,0.04667967930436134
0.00011207163333892822,0.046655263751745224
0.00011263787746429443,0.046655263751745224
0.00011321157217025757,0.04667967930436134
0.00011377781629562378,0.046777334064245224
0.00011434406042098999,0.0468749925494194
0.00011491775512695312,0.047021474689245224
0.00011548399925231934,0.047216787934303284
0.00011605769395828247,0.04741210117936134
0.00011662393808364868,0.04755858704447746
0.00011719018220901489,0.04763182997703552
0.00011776387691497803,0.04765624180436134
0.00011833012104034424,0.0477294847369194
0.00011889636516571045,0.04780272766947746
0.00011947005987167358,0.04787597060203552
0.0001200363039970398,0.04794921353459358
0.000120602548122406,0.04802245646715164
0.00012117624282836914,0.0480956993997097
0.00012174248695373535,0.04816893860697746
0.00012230873107910156,0.04819335415959358
0.0001228824257850647,0.04816893860697746
0.0001234486699104309,0.04814452677965164
0.00012401491403579712,0.04812011122703552
0.00012458860874176025,0.0480956993997097
0.00012515485286712646,0.0480956993997097
0.0001257285475730896,0.04807128384709358
0.0001262947916984558,0.04804686829447746
0.00012686103582382202,0.04794921353459358
0.00012743473052978516,0.0478515550494194
0.00012800097465515137,0.0477294847369194
0.00012856721878051758,0.04765624180436134
0.0001291409134864807,0.04763182997703552
0.00012970715761184692,0.0476074144244194
0.00013027340173721313,0.04758300259709358
0.00013084709644317627,0.04753417149186134
0.00013141334056854248,0.04743651673197746
0.0001319795846939087,0.04731444641947746
0.00013255327939987183,0.04716796055436134
0.00013311952352523804,0.0469970628619194
0.00013369321823120117,0.046899404376745224
