Time,Voltage
0.0,0.046728506684303284
5.662441253662109e-07,0.046386707574129105
1.1324882507324219e-06,0.046166982501745224
1.7061829566955566e-06,0.046118151396512985
2.2724270820617676e-06,0.046166982501745224
2.8461217880249023e-06,0.046142566949129105
3.4123659133911133e-06,0.045874010771512985
3.978610038757324e-06,0.045263659209012985
4.552304744720459e-06,0.04431150481104851
5.11854887008667e-06,0.04316404089331627
5.684792995452881e-06,0.04194333404302597
6.258487701416016e-06,0.04082028567790985
6.8247318267822266e-06,0.03984371945261955
7.3909759521484375e-06,0.039013639092445374
7.964670658111572e-06,0.038281213492155075
8.530914783477783e-06,0.03767085820436478
9.097158908843994e-06,0.03715816140174866
9.670853614807129e-06,0.03669429570436478
1.023709774017334e-05,0.03630366921424866
1.080334186553955e-05,0.03601069748401642
1.1377036571502686e-05,0.03581538796424866
1.1943280696868896e-05,0.03576655685901642
1.2516975402832031e-05,0.03576655685901642
1.3083219528198242e-05,0.03576655685901642
1.3649463653564453e-05,0.03571772947907448
1.4223158359527588e-05,0.03569331392645836
1.4789402484893799e-05,0.03566890209913254
1.535564661026001e-05,0.03566890209913254
1.5929341316223145e-05,0.03569331392645836
1.6495585441589355e-05,0.03581538796424866
1.7061829566955566e-05,0.03608394041657448
1.76355242729187e-05,0.03652339428663254
1.8201768398284912e-05,0.03703609108924866
1.8768012523651123e-05,0.037499960511922836
1.9341707229614258e-05,0.037768516689538956
1.990795135498047e-05,0.037792932242155075
2.0481646060943604e-05,0.037646446377038956
2.1047890186309814e-05,0.037377890199422836
2.1614134311676025e-05,0.037231408059597015
2.218782901763916e-05,0.03730464726686478
2.275407314300537e-05,0.037499960511922836
2.3320317268371582e-05,0.037695273756980896
2.3894011974334717e-05,0.037817344069480896
2.4460256099700928e-05,0.038037072867155075
2.502650022506714e-05,0.038452111184597015
2.5600194931030273e-05,0.039135709404945374
2.6166439056396484e-05,0.039990201592445374
2.6732683181762695e-05,0.04091794043779373
2.730637788772583e-05,0.04179684817790985
2.787262201309204e-05,0.04252927377820015
2.8446316719055176e-05,0.04311521351337433
2.9012560844421387e-05,0.04365232586860657
2.9578804969787598e-05,0.04423826187849045
3.0152499675750732e-05,0.044848617166280746
3.071874380111694e-05,0.045458972454071045
3.1284987926483154e-05,0.046044908463954926
3.185868263244629e-05,0.046508777886629105
3.24249267578125e-05,0.046826161444187164
3.299117088317871e-05,0.0469970628619194
3.3564865589141846e-05,0.0471191331744194
3.413110971450806e-05,0.0472412034869194
3.469735383987427e-05,0.047338858246803284
3.52710485458374e-05,0.047460928559303284
3.583729267120361e-05,0.04758300259709358
3.6403536796569824e-05,0.04770507290959358
3.697723150253296e-05,0.04782714322209358
3.754347562789917e-05,0.04792479798197746
3.8117170333862305e-05,0.04799804091453552
3.8683414459228516e-05,0.04802245646715164
3.9249658584594727e-05,0.0479736253619194
3.982335329055786e-05,0.04790038615465164
4.038959741592407e-05,0.04777831584215164
4.095584154129028e-05,0.04763182997703552
4.152953624725342e-05,0.047460928559303284
4.209578037261963e-05,0.047338858246803284
4.266202449798584e-05,0.04729003086686134
4.3235719203948975e-05,0.04729003086686134
4.3801963329315186e-05,0.04738768935203552
4.4368207454681396e-05,0.04753417149186134
4.494190216064453e-05,0.04770507290959358
4.550814628601074e-05,0.04790038615465164
4.608184099197388e-05,0.0480956993997097
4.664808511734009e-05,0.0482177697122097
4.72143292427063e-05,0.04829101264476776
4.7788023948669434e-05,0.04829101264476776
4.8354268074035645e-05,0.04819335415959358
4.8920512199401855e-05,0.04804686829447746
4.949420690536499e-05,0.0478515550494194
5.00604510307312e-05,0.0476074144244194
5.062669515609741e-05,0.0473632737994194
5.120038986206055e-05,0.047143545001745224
5.176663398742676e-05,0.046972647309303284
5.233287811279297e-05,0.046752918511629105
5.2906572818756104e-05,0.046508777886629105
5.3472816944122314e-05,0.046264637261629105
5.4039061069488525e-05,0.046093739569187164
5.461275577545166e-05,0.046020496636629105
5.517899990081787e-05,0.046069324016571045
5.5752694606781006e-05,0.046264637261629105
5.631893873214722e-05,0.046459950506687164
5.688518285751343e-05,0.046606436371803284
5.745887756347656e-05,0.046630848199129105
5.8025121688842773e-05,0.046508777886629105
5.8591365814208984e-05,0.046337880194187164
5.916506052017212e-05,0.046118151396512985
5.973130464553833e-05,0.045996081084012985
6.029754877090454e-05,0.045996081084012985
6.0871243476867676e-05,0.046118151396512985
6.143748760223389e-05,0.046313464641571045
6.20037317276001e-05,0.046533193439245224
6.257742643356323e-05,0.046777334064245224
6.314367055892944e-05,0.047070302069187164
6.371736526489258e-05,0.047338858246803284
6.428360939025879e-05,0.04758300259709358
6.4849853515625e-05,0.04775390028953552
6.542354822158813e-05,0.04782714322209358
6.598979234695435e-05,0.0478515550494194
6.655603647232056e-05,0.04790038615465164
6.712973117828369e-05,0.0479736253619194
6.76959753036499e-05,0.04807128384709358
6.826221942901611e-05,0.04819335415959358
6.883591413497925e-05,0.0483398400247097
6.940215826034546e-05,0.04841308295726776
6.996840238571167e-05,0.04836425185203552
7.05420970916748e-05,0.04824218153953552
7.110834121704102e-05,0.04814452677965164
7.167458534240723e-05,0.0480956993997097
7.224828004837036e-05,0.04807128384709358
7.281452417373657e-05,0.04804686829447746
7.338821887969971e-05,0.04802245646715164
7.395446300506592e-05,0.04804686829447746
7.452070713043213e-05,0.0480956993997097
7.509440183639526e-05,0.04816893860697746
7.566064596176147e-05,0.04819335415959358
7.622689008712769e-05,0.0480956993997097
7.680058479309082e-05,0.04782714322209358
7.736682891845703e-05,0.047460928559303284
7.793307304382324e-05,0.046972647309303284
7.850676774978638e-05,0.046484366059303284
7.907301187515259e-05,0.046069324016571045
7.96392560005188e-05,0.045874010771512985
8.021295070648193e-05,0.045849598944187164
8.077919483184814e-05,0.045971669256687164
8.135288953781128e-05,0.046240221709012985
8.191913366317749e-05,0.046606436371803284
8.24853777885437e-05,0.0469970628619194
8.305907249450684e-05,0.0473632737994194
8.362531661987305e-05,0.04765624180436134
8.419156074523926e-05,0.0478515550494194
8.476525545120239e-05,0.04794921353459358
8.53314995765686e-05,0.04799804091453552
8.589774370193481e-05,0.0479736253619194
8.647143840789795e-05,0.04787597060203552
8.703768253326416e-05,0.04768065735697746
8.760392665863037e-05,0.04743651673197746
8.81776213645935e-05,0.04719237610697746
8.874386548995972e-05,0.046972647309303284
8.931010961532593e-05,0.04680174961686134
8.988380432128906e-05,0.046704091131687164
9.045004844665527e-05,0.046728506684303284
9.102374315261841e-05,0.046850576996803284
9.158998727798462e-05,0.0471191331744194
9.215623140335083e-05,0.04741210117936134
9.272992610931396e-05,0.04770507290959358
9.329617023468018e-05,0.0479736253619194
9.386241436004639e-05,0.0482177697122097
9.443610906600952e-05,0.04851073771715164
9.500235319137573e-05,0.0488281212747097
9.556859731674194e-05,0.04904785007238388
9.614229202270508e-05,0.04921874776482582
9.670853614807129e-05,0.04926757514476776
9.72747802734375e-05,0.04921874776482582
9.784847497940063e-05,0.04902343451976776
9.841471910476685e-05,0.04875487834215164
9.898841381072998e-05,0.0484619103372097
9.955465793609619e-05,0.0482177697122097
0.0001001209020614624,0.04799804091453552
0.00010069459676742554,0.04782714322209358
0.00010126084089279175,0.04763182997703552
0.00010182708501815796,0.04738768935203552
0.0001024007797241211,0.0471191331744194
0.0001029670238494873,0.046850576996803284
0.00010353326797485352,0.046606436371803284
0.00010410696268081665,0.046411123126745224
0.00010467320680618286,0.046313464641571045
0.00010523945093154907,0.046289052814245224
0.00010581314563751221,0.046313464641571045
0.00010637938976287842,0.046386707574129105
0.00010694563388824463,0.046508777886629105
0.00010751932859420776,0.046630848199129105
0.00010808557271957397,0.046752918511629105
0.00010865926742553711,0.046850576996803284
0.00010922551155090332,0.0469970628619194
0.00010979175567626953,0.04716796055436134
0.00011036545038223267,0.0473632737994194
0.00011093169450759888,0.04755858704447746
0.00011149793863296509,0.04770507290959358
0.00011207163333892822,0.04775390028953552
0.00011263787746429443,0.04775390028953552
0.00011320412158966064,0.04768065735697746
0.00011377781629562378,0.04758300259709358
0.00011434406042098999,0.04758300259709358
0.0001149103045463562,0.0476074144244194
0.00011548399925231934,0.04775390028953552
0.00011605024337768555,0.04792479798197746
0.00011662393808364868,0.04812011122703552
0.00011719018220901489,0.04826659709215164
0.0001177564263343811,0.04838866740465164
0.00011833012104034424,0.0484619103372097
0.00011889636516571045,0.04848632588982582
0.00011946260929107666,0.0484619103372097
0.0001200363039970398,0.04841308295726776
0.000120602548122406,0.0483398400247097
0.00012116879224777222,0.04824218153953552
0.00012174248695373535,0.04816893860697746
0.00012230873107910156,0.04814452677965164
0.00012287497520446777,0.04819335415959358
0.0001234486699104309,0.04831542447209358
0.00012401491403579712,0.0484619103372097
0.00012458115816116333,0.0485839806497097
0.00012515485286712646,0.04865722358226776
0.00012572109699249268,0.04865722358226776
0.0001262947916984558,0.04865722358226776
0.00012686103582382202,0.04865722358226776
0.00012742727994918823,0.04863280802965164
0.00012800097465515137,0.0485839806497097
0.00012856721878051758,0.04843749478459358
0.0001291334629058838,0.04824218153953552
0.00012970715761184692,0.04799804091453552
0.00013027340173721313,0.0477294847369194
0.00013083964586257935,0.047460928559303284
0.00013141334056854248,0.047216787934303284
0.0001319795846939087,0.046948231756687164
0.0001325458288192749,0.04667967930436134
0.00013311952352523804,0.046435534954071045
0.00013368576765060425,0.046240221709012985
