Time,Voltage,Readout
0.0,0.046435534954071045,1.0
5.662441253662109e-07,0.046484366059303284,1.0
1.1324882507324219e-06,0.046386707574129105,1.0
1.7136335372924805e-06,0.046191394329071045,1.0
2.2798776626586914e-06,0.045898426324129105,1.0
2.8461217880249023e-06,0.045605454593896866,1.0
3.4123659133911133e-06,0.045190416276454926,1.0
3.978610038757324e-06,0.044555649161338806,1.0
4.544854164123535e-06,0.04362791031599045,1.0
5.125999450683594e-06,0.04248044639825821,1.0
5.692243576049805e-06,0.04130856692790985,1.0
6.258487701416016e-06,0.04028317332267761,1.0
6.8247318267822266e-06,0.039477504789829254,1.0
7.3909759521484375e-06,0.038842737674713135,1.0
7.972121238708496e-06,0.038305629044771194,1.0
8.538365364074707e-06,0.037866175174713135,1.0
9.104609489440918e-06,0.03754878789186478,1.0
9.670853614807129e-06,0.037353478372097015,1.0
1.023709774017334e-05,0.03718257695436478,1.0
1.080334186553955e-05,0.03703609108924866,1.0
1.138448715209961e-05,0.03693843632936478,1.0
1.195073127746582e-05,0.03686519339680672,1.0
1.2516975402832031e-05,0.03679195046424866,1.0
1.3083219528198242e-05,0.03666988015174866,1.0
1.3649463653564453e-05,0.03652339428663254,1.0
1.4215707778930664e-05,0.0363524965941906,1.0
1.4796853065490723e-05,0.03615718334913254,1.0
1.5363097190856934e-05,0.0359862856566906,1.0
1.5929341316223145e-05,0.0358642153441906,1.0
1.6495585441589355e-05,0.03588862717151642,1.0
1.7061829566955566e-05,0.0361083559691906,1.0
1.7642974853515625e-05,0.03649898245930672,1.0
1.8209218978881836e-05,0.03691402077674866,1.0
1.8775463104248047e-05,0.03730464726686478,1.0
1.9341707229614258e-05,0.037573203444480896,1.0
1.990795135498047e-05,0.037646446377038956,1.0
2.047419548034668e-05,0.03754878789186478,1.0
2.1055340766906738e-05,0.037377890199422836,1.0
2.162158489227295e-05,0.037329062819480896,1.0
2.218782901763916e-05,0.037573203444480896,1.0
2.275407314300537e-05,0.038134731352329254,1.0
2.3320317268371582e-05,0.039038050919771194,1.0
2.3886561393737793e-05,0.04013668745756149,1.0
2.446770668029785e-05,0.04130856692790985,1.0
2.5033950805664062e-05,0.04245603084564209,1.0
2.5600194931030273e-05,0.04353025555610657,1.0
2.6166439056396484e-05,0.04438474774360657,1.0
2.6732683181762695e-05,0.045043930411338806,1.0
2.7313828468322754e-05,0.045581042766571045,1.0
2.7880072593688965e-05,0.046020496636629105,1.0
2.8446316719055176e-05,0.046337880194187164,1.0
2.9012560844421387e-05,0.046459950506687164,1.0
2.9578804969787598e-05,0.046411123126745224,1.0
3.014504909515381e-05,0.046215809881687164,1.0
3.072619438171387e-05,0.045922838151454926,1.0
3.129243850708008e-05,0.045581042766571045,1.0
3.185868263244629e-05,0.045312486588954926,1.0
3.24249267578125e-05,0.04514158517122269,1.0
3.299117088317871e-05,0.045043930411338806,1.0
3.355741500854492e-05,0.04501951485872269,1.0
3.413856029510498e-05,0.04501951485872269,1.0
3.470480442047119e-05,0.045068345963954926,1.0
3.52710485458374e-05,0.04514158517122269,1.0
3.583729267120361e-05,0.045263659209012985,1.0
3.6403536796569824e-05,0.045361313968896866,1.0
3.698468208312988e-05,0.045385729521512985,1.0
3.7550926208496094e-05,0.045434556901454926,1.0
3.8117170333862305e-05,0.045434556901454926,1.0
3.8683414459228516e-05,0.045483384281396866,1.0
3.9249658584594727e-05,0.045458972454071045,1.0
3.981590270996094e-05,0.045434556901454926,1.0
4.0397047996520996e-05,0.045385729521512985,1.0
4.096329212188721e-05,0.045361313968896866,1.0
4.152953624725342e-05,0.045336902141571045,1.0
4.209578037261963e-05,0.045288071036338806,1.0
4.266202449798584e-05,0.045166000723838806,1.0
4.32431697845459e-05,0.04501951485872269,1.0
4.380941390991211e-05,0.044848617166280746,1.0
4.437565803527832e-05,0.04470213130116463,1.0
4.494190216064453e-05,0.04453123360872269,1.0
4.550814628601074e-05,0.044360335916280746,1.0
4.607439041137695e-05,0.04426267743110657,1.0
4.665553569793701e-05,0.04426267743110657,1.0
4.722177982330322e-05,0.04426267743110657,1.0
4.7788023948669434e-05,0.044360335916280746,1.0
4.8354268074035645e-05,0.04453123360872269,1.0
4.8920512199401855e-05,0.044726546853780746,1.0
4.9486756324768066e-05,0.044921860098838806,1.0
5.0067901611328125e-05,0.045068345963954926,1.0
5.0634145736694336e-05,0.045239243656396866,1.0
5.120038986206055e-05,0.045434556901454926,1.0
5.176663398742676e-05,0.045556627213954926,1.0
5.233287811279297e-05,0.045556627213954926,1.0
5.291402339935303e-05,0.045434556901454926,1.0
5.348026752471924e-05,0.045190416276454926,1.0
5.404651165008545e-05,0.044946275651454926,1.0
5.461275577545166e-05,0.04477537423372269,1.0
5.517899990081787e-05,0.04465330392122269,1.0
5.574524402618408e-05,0.04462888836860657,1.0
5.632638931274414e-05,0.044677719473838806,1.0
5.689263343811035e-05,0.04477537423372269,1.0
5.745887756347656e-05,0.044848617166280746,1.0
5.8025121688842773e-05,0.044873032718896866,1.0
5.8591365814208984e-05,0.04489744454622269,1.0
5.9157609939575195e-05,0.044995103031396866,1.0
5.9738755226135254e-05,0.045068345963954926,1.0
6.0304999351501465e-05,0.045068345963954926,1.0
6.0871243476867676e-05,0.044995103031396866,1.0
6.143748760223389e-05,0.044848617166280746,1.0
6.20037317276001e-05,0.044677719473838806,1.0
6.258487701416016e-05,0.044482406228780746,1.0
6.315112113952637e-05,0.04433592036366463,1.0
6.371736526489258e-05,0.04431150481104851,1.0
6.428360939025879e-05,0.04440916329622269,1.0
6.4849853515625e-05,0.04458006098866463,1.0
6.541609764099121e-05,0.04482420161366463,1.0
6.599724292755127e-05,0.045092757791280746,1.0
6.656348705291748e-05,0.045312486588954926,1.0
6.712973117828369e-05,0.045458972454071045,1.0
6.76959753036499e-05,0.045532211661338806,1.0
6.826221942901611e-05,0.045581042766571045,1.0
6.882846355438232e-05,0.045629870146512985,1.0
6.940960884094238e-05,0.045678697526454926,1.0
6.99758529663086e-05,0.045727524906396866,1.0
7.05420970916748e-05,0.045776356011629105,1.0
7.110834121704102e-05,0.045825183391571045,1.0
7.167458534240723e-05,0.045849598944187164,1.0
7.225573062896729e-05,0.045874010771512985,1.0
7.28219747543335e-05,0.045800767838954926,1.0
7.338821887969971e-05,0.045703113079071045,1.0
7.395446300506592e-05,0.045532211661338806,1.0
7.452070713043213e-05,0.045336902141571045,1.0
7.508695125579834e-05,0.045166000723838806,1.0
7.56680965423584e-05,0.04501951485872269,1.0
7.623434066772461e-05,0.044921860098838806,1.0
7.680058479309082e-05,0.044848617166280746,1.0
7.736682891845703e-05,0.04477537423372269,1.0
7.793307304382324e-05,0.04470213130116463,1.0
7.85142183303833e-05,0.044604476541280746,1.0
7.908046245574951e-05,0.04453123360872269,1.0
7.964670658111572e-05,0.04450681805610657,1.0
8.021295070648193e-05,0.04453123360872269,1.0
8.077919483184814e-05,0.04450681805610657,1.0
8.134543895721436e-05,0.04445799067616463,1.0
8.192658424377441e-05,0.044360335916280746,1.0
8.249282836914062e-05,0.04421385005116463,1.0
8.305907249450684e-05,0.04404295235872269,1.0
8.362531661987305e-05,0.04387205094099045,1.0
8.419156074523926e-05,0.04377439618110657,1.0
8.475780487060547e-05,0.04374998062849045,1.0
8.533895015716553e-05,0.04377439618110657,1.0
8.590519428253174e-05,0.04374998062849045,1.0
8.647143840789795e-05,0.04370115324854851,1.0
8.703768253326416e-05,0.04365232586860657,1.0
8.760392665863037e-05,0.04362791031599045,1.0
8.818507194519043e-05,0.04365232586860657,1.0
8.875131607055664e-05,0.04374998062849045,1.0
8.931756019592285e-05,0.04394529387354851,1.0
8.988380432128906e-05,0.04421385005116463,1.0
9.045004844665527e-05,0.044482406228780746,1.0
9.101629257202148e-05,0.04477537423372269,1.0
9.159743785858154e-05,0.045092757791280746,1.0
9.216368198394775e-05,0.045361313968896866,1.0
9.272992610931396e-05,0.045507799834012985,1.0
9.329617023468018e-05,0.045483384281396866,1.0
9.386241436004639e-05,0.045336902141571045,1.0
9.44286584854126e-05,0.045117173343896866,1.0
9.500980377197266e-05,0.044848617166280746,1.0
9.557604789733887e-05,0.04462888836860657,1.0
9.614229202270508e-05,0.04450681805610657,1.0
9.670853614807129e-05,0.04453123360872269,1.0
9.72747802734375e-05,0.04465330392122269,1.0
9.785592555999756e-05,0.044848617166280746,1.0
9.842216968536377e-05,0.045092757791280746,1.0
9.898841381072998e-05,0.045336902141571045,1.0
9.955465793609619e-05,0.045581042766571045,1.0
0.0001001209020614624,0.045825183391571045,1.0
0.00010068714618682861,0.046093739569187164,1.0
0.00010126829147338867,0.046362295746803284,1.0
0.00010183453559875488,0.046557605266571045,1.0
0.0001024007797241211,0.046606436371803284,1.0
0.0001029670238494873,0.046533193439245224,1.0
0.00010353326797485352,0.046337880194187164,1.0
0.00010409951210021973,0.046093739569187164,1.0
0.00010468065738677979,0.045849598944187164,1.0
0.000105246901512146,0.045654281973838806,1.0
0.00010581314563751221,0.045458972454071045,1.0
0.00010637938976287842,0.045288071036338806,1.0
0.00010694563388824463,0.045043930411338806,1.0
0.00010752677917480469,0.044750962406396866,1.0
0.0001080930233001709,0.044433578848838806,1.0
0.00010865926742553711,0.04418943449854851,1.0
0.00010922551155090332,0.04409177973866463,1.0
0.00010979175567626953,0.04414060711860657,1.0
0.00011035799980163574,0.04431150481104851,1.0
0.0001109391450881958,0.04453123360872269,1.0
0.00011150538921356201,0.044750962406396866,1.0
0.00011207163333892822,0.044921860098838806,1.0
0.00011263787746429443,0.045092757791280746,1.0
0.00011320412158966064,0.045214828103780746,1.0
0.0001137852668762207,0.045312486588954926,1.0
0.00011435151100158691,0.045336902141571045,1.0
0.00011491775512695312,0.045336902141571045,1.0
0.00011548399925231934,0.045312486588954926,1.0
0.00011605024337768555,0.045263659209012985,1.0
0.00011661648750305176,0.045166000723838806,1.0
0.00011719763278961182,0.045068345963954926,1.0
0.00011776387691497803,0.044946275651454926,1.0
0.00011833012104034424,0.04489744454622269,1.0
0.00011889636516571045,0.044873032718896866,1.0
0.00011946260929107666,0.044946275651454926,1.0
0.00012002885341644287,0.045043930411338806,1.0
0.00012060999870300293,0.04514158517122269,1.0
0.00012117624282836914,0.045239243656396866,1.0
0.00012174248695373535,0.045361313968896866,1.0
0.00012230873107910156,0.045507799834012985,1.0
0.00012287497520446777,0.045629870146512985,1.0
0.00012345612049102783,0.045727524906396866,1.0
0.00012402236461639404,0.045800767838954926,1.0
0.00012458860874176025,0.045849598944187164,1.0
0.00012515485286712646,0.045898426324129105,1.0
0.00012572109699249268,0.045947253704071045,1.0
0.0001262873411178589,0.045947253704071045,1.0
0.00012686848640441895,0.045898426324129105,1.0
0.00012743473052978516,0.045776356011629105,1.0
0.00012800097465515137,0.045605454593896866,1.0
0.00012856721878051758,0.045410141348838806,1.0
0.0001291334629058838,0.045214828103780746,1.0
0.00012969970703125,0.045068345963954926,1.0
0.00013028085231781006,0.04501951485872269,1.0
0.00013084709644317627,0.04501951485872269,1.0
0.00013141334056854248,0.04501951485872269,1.0
0.0001319795846939087,0.045117173343896866,1.0
0.0001325458288192749,0.045312486588954926,1.0
0.00013312697410583496,0.045629870146512985,1.0
0.00013369321823120117,0.046020496636629105,1.0
