Time,Voltage,Readout
0.0,0.04836425185203552,1.0
5.690380930900574e-07,0.04831542447209358,1.0
1.137610524892807e-06,0.04819335415959358,1.0
1.7066486179828644e-06,0.04804686829447746,1.0
2.2756867110729218e-06,0.04782714322209358,1.0
2.8442591428756714e-06,0.04743651673197746,1.0
3.4132972359657288e-06,0.046777334064245224,1.0
3.982335329055786e-06,0.045776356011629105,1.0
4.550907760858536e-06,0.04462888836860657,1.0
5.119945853948593e-06,0.04350584000349045,1.0
5.6889839470386505e-06,0.04245603084564209,1.0
6.2575563788414e-06,0.04147946834564209,1.0
6.8265944719314575e-06,0.04062497243285179,1.0
7.395632565021515e-06,0.03996578976511955,1.0
7.964204996824265e-06,0.03945309296250343,1.0
8.533243089914322e-06,0.038989223539829254,1.0
9.10228118300438e-06,0.038549769669771194,1.0
9.670853614807129e-06,0.038061484694480896,1.0
1.0239891707897186e-05,0.037573203444480896,1.0
1.0808929800987244e-05,0.037011679261922836,1.0
1.1377502232789993e-05,0.03642573952674866,1.0
1.194654032588005e-05,0.03591304272413254,1.0
1.2515578418970108e-05,0.03554683178663254,1.0
1.3084150850772858e-05,0.0353759303689003,1.0
1.3653188943862915e-05,0.03535151854157448,1.0
1.4222227036952972e-05,0.03544917330145836,1.0
1.4790799468755722e-05,0.03571772947907448,1.0
1.535983756184578e-05,0.03618159890174866,1.0
1.5928875654935837e-05,0.03674312308430672,1.0
1.6497913748025894e-05,0.037206992506980896,1.0
1.7066486179828644e-05,0.03754878789186478,1.0
1.76355242729187e-05,0.037744104862213135,1.0
1.820456236600876e-05,0.037792932242155075,1.0
1.8773134797811508e-05,0.037792932242155075,1.0
1.9342172890901566e-05,0.037695273756980896,1.0
1.9911210983991623e-05,0.037597618997097015,1.0
2.0479783415794373e-05,0.037597618997097015,1.0
2.104882150888443e-05,0.037646446377038956,1.0
2.1617859601974487e-05,0.037622030824422836,1.0
2.2186432033777237e-05,0.037499960511922836,1.0
2.2755470126867294e-05,0.037280235439538956,1.0
2.332450821995735e-05,0.03698726370930672,1.0
2.38930806517601e-05,0.03669429570436478,1.0
2.446211874485016e-05,0.03642573952674866,1.0
2.5031156837940216e-05,0.0362304262816906,1.0
2.5599729269742966e-05,0.0362304262816906,1.0
2.6168767362833023e-05,0.03632808476686478,1.0
2.673780545592308e-05,0.03645015507936478,1.0
2.730637788772583e-05,0.0364745669066906,1.0
2.7875415980815887e-05,0.03645015507936478,1.0
2.8444454073905945e-05,0.03637691214680672,1.0
2.9013026505708694e-05,0.0363524965941906,1.0
2.9582064598798752e-05,0.03632808476686478,1.0
3.015110269188881e-05,0.0363524965941906,1.0
3.0720140784978867e-05,0.03642573952674866,1.0
3.1288713216781616e-05,0.03654780983924866,1.0
3.1857751309871674e-05,0.03666988015174866,1.0
3.242678940296173e-05,0.03681636601686478,1.0
3.299536183476448e-05,0.03691402077674866,1.0
3.356439992785454e-05,0.036962851881980896,1.0
3.4133438020944595e-05,0.037011679261922836,1.0
3.4702010452747345e-05,0.03698726370930672,1.0
3.52710485458374e-05,0.036889608949422836,1.0
3.584008663892746e-05,0.036840781569480896,1.0
3.640865907073021e-05,0.036840781569480896,1.0
3.697769716382027e-05,0.03691402077674866,1.0
3.7546735256910324e-05,0.03691402077674866,1.0
3.8115307688713074e-05,0.036840781569480896,1.0
3.868434578180313e-05,0.03666988015174866,1.0
3.925338387489319e-05,0.03640132397413254,1.0
3.982195630669594e-05,0.03615718334913254,1.0
4.0390994399785995e-05,0.03593745827674866,1.0
4.096003249287605e-05,0.03579097241163254,1.0
4.15286049246788e-05,0.03569331392645836,1.0
4.209764301776886e-05,0.0356200709939003,1.0
4.266668111085892e-05,0.03552241623401642,1.0
4.323525354266167e-05,0.03540034592151642,1.0
4.3804291635751724e-05,0.0352538600564003,1.0
4.437332972884178e-05,0.0351317897439003,1.0
4.494236782193184e-05,0.03510737419128418,1.0
4.551094025373459e-05,0.03535151854157448,1.0
4.6079978346824646e-05,0.03593745827674866,1.0
4.66490164399147e-05,0.03691402077674866,1.0
4.721758887171745e-05,0.038159143179655075,1.0
4.778662696480751e-05,0.039501920342445374,1.0
4.835566505789757e-05,0.04084469750523567,1.0
4.892423748970032e-05,0.04206540435552597,1.0
4.9493275582790375e-05,0.04311521351337433,1.0
5.006231367588043e-05,0.04401853680610657,1.0
5.063088610768318e-05,0.04477537423372269,1.0
5.119992420077324e-05,0.045336902141571045,1.0
5.1768962293863297e-05,0.045776356011629105,1.0
5.2337534725666046e-05,0.046142566949129105,1.0
5.2906572818756104e-05,0.046435534954071045,1.0
5.347561091184616e-05,0.046655263751745224,1.0
5.404418334364891e-05,0.04680174961686134,1.0
5.461322143673897e-05,0.04692381992936134,1.0
5.5182259529829025e-05,0.047021474689245224,1.0
5.5750831961631775e-05,0.0471191331744194,1.0
5.631987005472183e-05,0.047216787934303284,1.0
5.688890814781189e-05,0.0473632737994194,1.0
5.745748057961464e-05,0.04755858704447746,1.0
5.80265186727047e-05,0.0477294847369194,1.0
5.8595556765794754e-05,0.04775390028953552,1.0
5.9164129197597504e-05,0.04755858704447746,1.0
5.973316729068756e-05,0.04726561903953552,1.0
6.030220538377762e-05,0.046948231756687164,1.0
6.0871243476867676e-05,0.046655263751745224,1.0
6.143981590867043e-05,0.046435534954071045,1.0
6.200885400176048e-05,0.046313464641571045,1.0
6.257789209485054e-05,0.046289052814245224,1.0
6.314646452665329e-05,0.046337880194187164,1.0
6.371550261974335e-05,0.046508777886629105,1.0
6.42845407128334e-05,0.046777334064245224,1.0
6.485311314463615e-05,0.047094717621803284,1.0
6.542215123772621e-05,0.047338858246803284,1.0
6.599118933081627e-05,0.04750975966453552,1.0
6.655976176261902e-05,0.04755858704447746,1.0
6.712879985570908e-05,0.04758300259709358,1.0
6.769783794879913e-05,0.04755858704447746,1.0
6.826641038060188e-05,0.047460928559303284,1.0
6.883544847369194e-05,0.04731444641947746,1.0
6.9404486566782e-05,0.04716796055436134,1.0
6.997305899858475e-05,0.04704589024186134,1.0
7.05420970916748e-05,0.046948231756687164,1.0
7.111113518476486e-05,0.04692381992936134,1.0
7.167970761656761e-05,0.04692381992936134,1.0
7.224874570965767e-05,0.046972647309303284,1.0
7.281778380274773e-05,0.0469970628619194,1.0
7.338635623455048e-05,0.0469970628619194,1.0
7.395539432764053e-05,0.047021474689245224,1.0
7.452443242073059e-05,0.0471191331744194,1.0
7.509347051382065e-05,0.04726561903953552,1.0
7.56620429456234e-05,0.04743651673197746,1.0
7.623108103871346e-05,0.04765624180436134,1.0
7.680011913180351e-05,0.04787597060203552,1.0
7.736869156360626e-05,0.0480956993997097,1.0
7.793772965669632e-05,0.04819335415959358,1.0
7.850676774978638e-05,0.04824218153953552,1.0
7.907534018158913e-05,0.04824218153953552,1.0
7.964437827467918e-05,0.04824218153953552,1.0
8.021341636776924e-05,0.0482177697122097,1.0
8.078198879957199e-05,0.0480956993997097,1.0
8.135102689266205e-05,0.04790038615465164,1.0
8.19200649857521e-05,0.04765624180436134,1.0
8.248863741755486e-05,0.04741210117936134,1.0
8.305767551064491e-05,0.04719237610697746,1.0
8.362671360373497e-05,0.04704589024186134,1.0
8.419528603553772e-05,0.046948231756687164,1.0
8.476432412862778e-05,0.046850576996803284,1.0
8.533336222171783e-05,0.046704091131687164,1.0
8.590193465352058e-05,0.046582020819187164,1.0
8.647097274661064e-05,0.046508777886629105,1.0
8.70400108397007e-05,0.046533193439245224,1.0
8.760858327150345e-05,0.046582020819187164,1.0
8.81776213645935e-05,0.046630848199129105,1.0
8.874665945768356e-05,0.046582020819187164,1.0
8.931569755077362e-05,0.046508777886629105,1.0
8.988426998257637e-05,0.046411123126745224,1.0
9.045330807566643e-05,0.046386707574129105,1.0
9.102234616875648e-05,0.046386707574129105,1.0
9.159091860055923e-05,0.046435534954071045,1.0
9.215995669364929e-05,0.046533193439245224,1.0
9.272899478673935e-05,0.046704091131687164,1.0
9.32975672185421e-05,0.046948231756687164,1.0
9.386660531163216e-05,0.0472412034869194,1.0
9.443564340472221e-05,0.04753417149186134,1.0
9.500421583652496e-05,0.04782714322209358,1.0
9.557325392961502e-05,0.04812011122703552,1.0
9.614229202270508e-05,0.04838866740465164,1.0
9.671086445450783e-05,0.0485839806497097,1.0
9.727990254759789e-05,0.0487060509622097,1.0
9.784894064068794e-05,0.04873046651482582,1.0
9.841751307249069e-05,0.04863280802965164,1.0
9.898655116558075e-05,0.0484619103372097,1.0
9.955558925867081e-05,0.04824218153953552,1.0
0.00010012416169047356,0.04799804091453552,1.0
0.00010069319978356361,0.04770507290959358,1.0
0.00010126223787665367,0.0474853441119194,1.0
0.00010183081030845642,0.04731444641947746,1.0
0.00010239984840154648,0.0472412034869194,1.0
0.00010296888649463654,0.0472412034869194,1.0
0.00010353792458772659,0.0472412034869194,1.0
0.00010410649701952934,0.04729003086686134,1.0
0.0001046755351126194,0.047338858246803284,1.0
0.00010524457320570946,0.04741210117936134,1.0
0.00010581314563751221,0.0474853441119194,1.0
0.00010638218373060226,0.04755858704447746,1.0
0.00010695122182369232,0.0476074144244194,1.0
0.00010751979425549507,0.0476074144244194,1.0
0.00010808883234858513,0.0476074144244194,1.0
0.00010865787044167519,0.04763182997703552,1.0
0.00010922644287347794,0.04777831584215164,1.0
0.00010979548096656799,0.04814452677965164,1.0
0.00011036451905965805,0.04860839620232582,1.0
0.0001109330914914608,0.04899902269244194,1.0
0.00011150212958455086,0.04931640625,1.0
0.00011207116767764091,0.049560546875,1.0
0.00011263974010944366,0.04973144456744194,1.0
0.00011320877820253372,0.04978027194738388,1.0
0.00011377781629562378,0.04970703274011612,1.0
0.00011434638872742653,0.0494384765625,1.0
0.00011491542682051659,0.04904785007238388,1.0
0.00011548446491360664,0.04863280802965164,1.0
0.0001160530373454094,0.0482177697122097,1.0
0.00011662207543849945,0.04794921353459358,1.0
0.00011719111353158951,0.04782714322209358,1.0
0.00011775968596339226,0.04780272766947746,1.0
0.00011832872405648232,0.04780272766947746,1.0
0.00011889776214957237,0.04777831584215164,1.0
0.00011946680024266243,0.04770507290959358,1.0
0.00012003537267446518,0.04758300259709358,1.0
0.00012060441076755524,0.0474853441119194,1.0
0.0001211734488606453,0.04738768935203552,1.0
0.00012174202129244804,0.0472412034869194,1.0
0.0001223110593855381,0.047143545001745224,1.0
0.00012288009747862816,0.047094717621803284,1.0
0.0001234486699104309,0.0471191331744194,1.0
0.00012401770800352097,0.04716796055436134,1.0
0.00012458674609661102,0.047143545001745224,1.0
0.00012515531852841377,0.047070302069187164,1.0
0.00012572435662150383,0.0469970628619194,1.0
0.0001262933947145939,0.0469970628619194,1.0
0.00012686196714639664,0.04704589024186134,1.0
0.0001274310052394867,0.04716796055436134,1.0
0.00012800004333257675,0.047338858246803284,1.0
0.0001285686157643795,0.04753417149186134,1.0
0.00012913765385746956,0.04770507290959358,1.0
0.00012970669195055962,0.04790038615465164,1.0
0.00013027526438236237,0.04804686829447746,1.0
0.00013084430247545242,0.04812011122703552,1.0
0.00013141334056854248,0.04816893860697746,1.0
0.00013198191300034523,0.04816893860697746,1.0
0.0001325509510934353,0.04812011122703552,1.0
0.00013311998918652534,0.04807128384709358,1.0
0.0001336890272796154,0.04799804091453552,1.0
