Time,Voltage,Readout
0.0,0.0476074144244194,1.0
5.699694156646729e-07,0.0477294847369194,1.0
1.1380761861801147e-06,0.04777831584215164,1.0
1.7080456018447876e-06,0.04780272766947746,1.0
2.2761523723602295e-06,0.04780272766947746,1.0
2.8461217880249023e-06,0.04763182997703552,1.0
3.4142285585403442e-06,0.047143545001745224,1.0
3.982335329055786e-06,0.046215809881687164,1.0
4.552304744720459e-06,0.044970687478780746,1.0
5.120411515235901e-06,0.04357908293604851,1.0
5.690380930900574e-06,0.04208981990814209,1.0
6.258487701416016e-06,0.04062497243285179,1.0
6.8265944719314575e-06,0.03920895233750343,1.0
7.39656388759613e-06,0.037963829934597015,1.0
7.964670658111572e-06,0.03686519339680672,1.0
8.534640073776245e-06,0.03603511303663254,1.0
9.102746844291687e-06,0.03544917330145836,1.0
9.67271625995636e-06,0.03515620529651642,1.0
1.0240823030471802e-05,0.03518061712384224,1.0
1.0808929800987244e-05,0.03542476147413254,1.0
1.1378899216651917e-05,0.03581538796424866,1.0
1.1947005987167358e-05,0.03620601072907448,1.0
1.2516975402832031e-05,0.0365966372191906,1.0
1.3085082173347473e-05,0.03691402077674866,1.0
1.3655051589012146e-05,0.03718257695436478,1.0
1.4223158359527588e-05,0.037377890199422836,1.0
1.479126513004303e-05,0.03754878789186478,1.0
1.5361234545707703e-05,0.037646446377038956,1.0
1.5929341316223145e-05,0.037622030824422836,1.0
1.6499310731887817e-05,0.037475548684597015,1.0
1.706741750240326e-05,0.037280235439538956,1.0
1.76355242729187e-05,0.037084922194480896,1.0
1.8205493688583374e-05,0.03693843632936478,1.0
1.8773600459098816e-05,0.036840781569480896,1.0
1.934356987476349e-05,0.036767538636922836,1.0
1.991167664527893e-05,0.03674312308430672,1.0
2.0481646060943604e-05,0.03679195046424866,1.0
2.1049752831459045e-05,0.03703609108924866,1.0
2.1617859601974487e-05,0.037353478372097015,1.0
2.218782901763916e-05,0.037622030824422836,1.0
2.2755935788154602e-05,0.037744104862213135,1.0
2.3325905203819275e-05,0.037719689309597015,1.0
2.3894011974334717e-05,0.037573203444480896,1.0
2.446398138999939e-05,0.03742671757936478,1.0
2.503208816051483e-05,0.03730464726686478,1.0
2.5600194931030273e-05,0.037329062819480896,1.0
2.6170164346694946e-05,0.037402305752038956,1.0
2.6738271117210388e-05,0.037451133131980896,1.0
2.730824053287506e-05,0.03742671757936478,1.0
2.7876347303390503e-05,0.03730464726686478,1.0
2.8444454073905945e-05,0.03710933402180672,1.0
2.9014423489570618e-05,0.036840781569480896,1.0
2.958253026008606e-05,0.03654780983924866,1.0
3.0152499675750732e-05,0.03630366921424866,1.0
3.0720606446266174e-05,0.03618159890174866,1.0
3.129057586193085e-05,0.03632808476686478,1.0
3.185868263244629e-05,0.03681636601686478,1.0
3.242678940296173e-05,0.037695273756980896,1.0
3.2996758818626404e-05,0.038915980607271194,1.0
3.3564865589141846e-05,0.04033200070261955,1.0
3.413483500480652e-05,0.04179684817790985,1.0
3.470294177532196e-05,0.04316404089331627,1.0
3.52710485458374e-05,0.04433592036366463,1.0
3.5841017961502075e-05,0.045263659209012985,1.0
3.640912473201752e-05,0.045996081084012985,1.0
3.697909414768219e-05,0.046484366059303284,1.0
3.754720091819763e-05,0.046826161444187164,1.0
3.8117170333862305e-05,0.046948231756687164,1.0
3.8685277104377747e-05,0.0468749925494194,1.0
3.925338387489319e-05,0.046655263751745224,1.0
3.982335329055786e-05,0.046411123126745224,1.0
4.03914600610733e-05,0.046191394329071045,1.0
4.0961429476737976e-05,0.046142566949129105,1.0
4.152953624725342e-05,0.046166982501745224,1.0
4.209950566291809e-05,0.046289052814245224,1.0
4.266761243343353e-05,0.046411123126745224,1.0
4.3235719203948975e-05,0.046606436371803284,1.0
4.380568861961365e-05,0.046826161444187164,1.0
4.437379539012909e-05,0.04704589024186134,1.0
4.494376480579376e-05,0.047216787934303284,1.0
4.5511871576309204e-05,0.04731444641947746,1.0
4.6079978346824646e-05,0.04731444641947746,1.0
4.664994776248932e-05,0.04719237610697746,1.0
4.721805453300476e-05,0.047070302069187164,1.0
4.7788023948669434e-05,0.04692381992936134,1.0
4.8356130719184875e-05,0.046826161444187164,1.0
4.892610013484955e-05,0.046826161444187164,1.0
4.949420690536499e-05,0.046826161444187164,1.0
5.006231367588043e-05,0.04680174961686134,1.0
5.0632283091545105e-05,0.046752918511629105,1.0
5.120038986206055e-05,0.046752918511629105,1.0
5.177035927772522e-05,0.04680174961686134,1.0
5.233846604824066e-05,0.0469970628619194,1.0
5.2908435463905334e-05,0.04726561903953552,1.0
5.3476542234420776e-05,0.04755858704447746,1.0
5.404464900493622e-05,0.04782714322209358,1.0
5.461461842060089e-05,0.0479736253619194,1.0
5.518272519111633e-05,0.04799804091453552,1.0
5.5752694606781006e-05,0.04794921353459358,1.0
5.632080137729645e-05,0.0478515550494194,1.0
5.688890814781189e-05,0.04775390028953552,1.0
5.745887756347656e-05,0.04768065735697746,1.0
5.8026984333992004e-05,0.04763182997703552,1.0
5.859695374965668e-05,0.04755858704447746,1.0
5.916506052017212e-05,0.0474853441119194,1.0
5.973502993583679e-05,0.04741210117936134,1.0
6.0303136706352234e-05,0.04731444641947746,1.0
6.0871243476867676e-05,0.047216787934303284,1.0
6.144121289253235e-05,0.0471191331744194,1.0
6.200931966304779e-05,0.047021474689245224,1.0
6.257928907871246e-05,0.047021474689245224,1.0
6.31473958492279e-05,0.047070302069187164,1.0
6.371550261974335e-05,0.047070302069187164,1.0
6.428547203540802e-05,0.046972647309303284,1.0
6.485357880592346e-05,0.046850576996803284,1.0
6.542354822158813e-05,0.046728506684303284,1.0
6.599165499210358e-05,0.046630848199129105,1.0
6.656162440776825e-05,0.046582020819187164,1.0
6.712973117828369e-05,0.046557605266571045,1.0
6.769783794879913e-05,0.046557605266571045,1.0
6.82678073644638e-05,0.046655263751745224,1.0
6.883591413497925e-05,0.046850576996803284,1.0
6.940588355064392e-05,0.047143545001745224,1.0
6.997399032115936e-05,0.047460928559303284,1.0
7.054395973682404e-05,0.04775390028953552,1.0
7.111206650733948e-05,0.0479736253619194,1.0
7.168017327785492e-05,0.0480956993997097,1.0
7.225014269351959e-05,0.04819335415959358,1.0
7.281824946403503e-05,0.04824218153953552,1.0
7.338821887969971e-05,0.04829101264476776,1.0
7.395632565021515e-05,0.04826659709215164,1.0
7.452443242073059e-05,0.04826659709215164,1.0
7.509440183639526e-05,0.04826659709215164,1.0
7.56625086069107e-05,0.04829101264476776,1.0
7.623247802257538e-05,0.04836425185203552,1.0
7.680058479309082e-05,0.04848632588982582,1.0
7.737055420875549e-05,0.04863280802965164,1.0
7.793866097927094e-05,0.04873046651482582,1.0
7.850676774978638e-05,0.04875487834215164,1.0
7.907673716545105e-05,0.04863280802965164,1.0
7.964484393596649e-05,0.04838866740465164,1.0
8.021481335163116e-05,0.0480956993997097,1.0
8.07829201221466e-05,0.04782714322209358,1.0
8.135288953781128e-05,0.04763182997703552,1.0
8.192099630832672e-05,0.0474853441119194,1.0
8.248910307884216e-05,0.04738768935203552,1.0
8.305907249450684e-05,0.04738768935203552,1.0
8.362717926502228e-05,0.04738768935203552,1.0
8.419714868068695e-05,0.04738768935203552,1.0
8.476525545120239e-05,0.04738768935203552,1.0
8.533336222171783e-05,0.04738768935203552,1.0
8.590333163738251e-05,0.047460928559303284,1.0
8.647143840789795e-05,0.04755858704447746,1.0
8.704140782356262e-05,0.0477294847369194,1.0
8.760951459407806e-05,0.04787597060203552,1.0
8.817948400974274e-05,0.0479736253619194,1.0
8.874759078025818e-05,0.0479736253619194,1.0
8.931569755077362e-05,0.04794921353459358,1.0
8.98856669664383e-05,0.04782714322209358,1.0
9.045377373695374e-05,0.04763182997703552,1.0
9.102374315261841e-05,0.04738768935203552,1.0
9.159184992313385e-05,0.047070302069187164,1.0
9.215995669364929e-05,0.046704091131687164,1.0
9.272992610931396e-05,0.046411123126745224,1.0
9.32980328798294e-05,0.046215809881687164,1.0
9.386800229549408e-05,0.046191394329071045,1.0
9.443610906600952e-05,0.046313464641571045,1.0
9.50060784816742e-05,0.046557605266571045,1.0
9.557418525218964e-05,0.04680174961686134,1.0
9.614229202270508e-05,0.047070302069187164,1.0
9.671226143836975e-05,0.047338858246803284,1.0
9.728036820888519e-05,0.04755858704447746,1.0
9.785033762454987e-05,0.04770507290959358,1.0
9.841844439506531e-05,0.04775390028953552,1.0
9.898841381072998e-05,0.04768065735697746,1.0
9.955652058124542e-05,0.04750975966453552,1.0
0.00010012462735176086,0.04731444641947746,1.0
0.00010069459676742554,0.0471191331744194,1.0
0.00010126270353794098,0.046972647309303284,1.0
0.00010183267295360565,0.046899404376745224,1.0
0.0001024007797241211,0.04692381992936134,1.0
0.00010296888649463654,0.047070302069187164,1.0
0.00010353885591030121,0.04731444641947746,1.0
0.00010410696268081665,0.04750975966453552,1.0
0.00010467693209648132,0.0476074144244194,1.0
0.00010524503886699677,0.0476074144244194,1.0
0.00010581500828266144,0.04750975966453552,1.0
0.00010638311505317688,0.04741210117936134,1.0
0.00010695122182369232,0.04738768935203552,1.0
0.000107521191239357,0.04738768935203552,1.0
0.00010808929800987244,0.04743651673197746,1.0
0.00010865926742553711,0.04753417149186134,1.0
0.00010922737419605255,0.04765624180436134,1.0
0.00010979548096656799,0.04780272766947746,1.0
0.00011036545038223267,0.04790038615465164,1.0
0.00011093355715274811,0.04792479798197746,1.0
0.00011150352656841278,0.0478515550494194,1.0
0.00011207163333892822,0.0477294847369194,1.0
0.0001126416027545929,0.04758300259709358,1.0
0.00011320970952510834,0.04741210117936134,1.0
0.00011377781629562378,0.04719237610697746,1.0
0.00011434778571128845,0.047021474689245224,1.0
0.0001149158924818039,0.046972647309303284,1.0
0.00011548586189746857,0.04704589024186134,1.0
0.00011605396866798401,0.0472412034869194,1.0
0.00011662393808364868,0.04741210117936134,1.0
0.00011719204485416412,0.04750975966453552,1.0
0.00011776015162467957,0.0474853441119194,1.0
0.00011833012104034424,0.0473632737994194,1.0
0.00011889822781085968,0.04716796055436134,1.0
0.00011946819722652435,0.047021474689245224,1.0
0.0001200363039970398,0.046948231756687164,1.0
0.00012060441076755524,0.046899404376745224,1.0
0.00012117438018321991,0.046850576996803284,1.0
0.00012174248695373535,0.046850576996803284,1.0
0.00012231245636940002,0.046850576996803284,1.0
0.00012288056313991547,0.0468749925494194,1.0
0.00012345053255558014,0.04692381992936134,1.0
0.00012401863932609558,0.0469970628619194,1.0
0.00012458674609661102,0.047070302069187164,1.0
0.0001251567155122757,0.047094717621803284,1.0
0.00012572482228279114,0.04704589024186134,1.0
0.0001262947916984558,0.046972647309303284,1.0
0.00012686289846897125,0.046972647309303284,1.0
0.00012743286788463593,0.0469970628619194,1.0
0.00012800097465515137,0.04704589024186134,1.0
0.0001285690814256668,0.047094717621803284,1.0
0.00012913905084133148,0.047070302069187164,1.0
0.00012970715761184692,0.04704589024186134,1.0
0.0001302771270275116,0.0469970628619194,1.0
0.00013084523379802704,0.046972647309303284,1.0
0.00013141334056854248,0.0469970628619194,1.0
0.00013198330998420715,0.047094717621803284,1.0
0.0001325514167547226,0.04726561903953552,1.0
0.00013312138617038727,0.04741210117936134,1.0
0.0001336894929409027,0.04758300259709358,1.0
