Time,Voltage,Readout
0.0,0.04812011122703552,1.0
5.662441253662109e-07,0.04787597060203552,1.0
1.1399388313293457e-06,0.04763182997703552,1.0
1.7061829566955566e-06,0.04743651673197746,1.0
2.2724270820617676e-06,0.0472412034869194,1.0
2.8461217880249023e-06,0.047021474689245224,1.0
3.4123659133911133e-06,0.046606436371803284,1.0
3.986060619354248e-06,0.045874010771512985,1.0
4.552304744720459e-06,0.044799789786338806,1.0
5.11854887008667e-06,0.04365232586860657,1.0
5.692243576049805e-06,0.04257810115814209,1.0
6.258487701416016e-06,0.04157712310552597,1.0
6.8247318267822266e-06,0.04060055688023567,1.0
7.398426532745361e-06,0.039623990654945374,1.0
7.964670658111572e-06,0.038671839982271194,1.0
8.530914783477783e-06,0.037890587002038956,1.0
9.104609489440918e-06,0.037280235439538956,1.0
9.670853614807129e-06,0.036840781569480896,1.0
1.023709774017334e-05,0.0365966372191906,1.0
1.0810792446136475e-05,0.03642573952674866,1.0
1.1377036571502686e-05,0.03627925366163254,1.0
1.195073127746582e-05,0.0361083559691906,1.0
1.2516975402832031e-05,0.03593745827674866,1.0
1.3083219528198242e-05,0.0357421413064003,1.0
1.3656914234161377e-05,0.03554683178663254,1.0
1.4223158359527588e-05,0.0353759303689003,1.0
1.4789402484893799e-05,0.0352538600564003,1.0
1.5363097190856934e-05,0.03520503267645836,1.0
1.5929341316223145e-05,0.03535151854157448,1.0
1.6495585441589355e-05,0.03554683178663254,1.0
1.706928014755249e-05,0.03569331392645836,1.0
1.76355242729187e-05,0.03576655685901642,1.0
1.8201768398284912e-05,0.03588862717151642,1.0
1.8775463104248047e-05,0.03605952858924866,1.0
1.9341707229614258e-05,0.03630366921424866,1.0
1.990795135498047e-05,0.03662105277180672,1.0
2.0481646060943604e-05,0.03693843632936478,1.0
2.1047890186309814e-05,0.03715816140174866,1.0
2.162158489227295e-05,0.037206992506980896,1.0
2.218782901763916e-05,0.03710933402180672,1.0
2.275407314300537e-05,0.036889608949422836,1.0
2.3327767848968506e-05,0.0365966372191906,1.0
2.3894011974334717e-05,0.03630366921424866,1.0
2.4460256099700928e-05,0.0359862856566906,1.0
2.5033950805664062e-05,0.03579097241163254,1.0
2.5600194931030273e-05,0.03579097241163254,1.0
2.6166439056396484e-05,0.0361083559691906,1.0
2.674013376235962e-05,0.036718711256980896,1.0
2.730637788772583e-05,0.037402305752038956,1.0
2.787262201309204e-05,0.037890587002038956,1.0
2.8446316719055176e-05,0.038037072867155075,1.0
2.9012560844421387e-05,0.037866175174713135,1.0
2.958625555038452e-05,0.037475548684597015,1.0
3.0152499675750732e-05,0.03698726370930672,1.0
3.071874380111694e-05,0.03654780983924866,1.0
3.129243850708008e-05,0.03625483810901642,1.0
3.185868263244629e-05,0.03613276779651642,1.0
3.24249267578125e-05,0.0361083559691906,1.0
3.2998621463775635e-05,0.03608394041657448,1.0
3.3564865589141846e-05,0.0359862856566906,1.0
3.413110971450806e-05,0.03576655685901642,1.0
3.470480442047119e-05,0.0354980006814003,1.0
3.52710485458374e-05,0.03518061712384224,1.0
3.583729267120361e-05,0.03491206467151642,1.0
3.641098737716675e-05,0.03478999063372612,1.0
3.697723150253296e-05,0.03491206467151642,1.0
3.754347562789917e-05,0.0352538600564003,1.0
3.8117170333862305e-05,0.03566890209913254,1.0
3.8683414459228516e-05,0.0361083559691906,1.0
3.925710916519165e-05,0.03645015507936478,1.0
3.982335329055786e-05,0.03664546459913254,1.0
4.038959741592407e-05,0.03669429570436478,1.0
4.096329212188721e-05,0.03666988015174866,1.0
4.152953624725342e-05,0.0365966372191906,1.0
4.209578037261963e-05,0.0365966372191906,1.0
4.2669475078582764e-05,0.0365966372191906,1.0
4.3235719203948975e-05,0.0365966372191906,1.0
4.3801963329315186e-05,0.03662105277180672,1.0
4.437565803527832e-05,0.03662105277180672,1.0
4.494190216064453e-05,0.0365966372191906,1.0
4.550814628601074e-05,0.03657222539186478,1.0
4.608184099197388e-05,0.0364745669066906,1.0
4.664808511734009e-05,0.03640132397413254,1.0
4.722177982330322e-05,0.03640132397413254,1.0
4.7788023948669434e-05,0.03652339428663254,1.0
4.8354268074035645e-05,0.036767538636922836,1.0
4.892796277999878e-05,0.03703609108924866,1.0
4.949420690536499e-05,0.037231408059597015,1.0
5.00604510307312e-05,0.03730464726686478,1.0
5.0634145736694336e-05,0.037255819886922836,1.0
5.120038986206055e-05,0.03718257695436478,1.0
5.176663398742676e-05,0.03718257695436478,1.0
5.234032869338989e-05,0.037280235439538956,1.0
5.2906572818756104e-05,0.037451133131980896,1.0
5.3472816944122314e-05,0.037573203444480896,1.0
5.404651165008545e-05,0.03754878789186478,1.0
5.461275577545166e-05,0.037353478372097015,1.0
5.517899990081787e-05,0.03703609108924866,1.0
5.5752694606781006e-05,0.03666988015174866,1.0
5.631893873214722e-05,0.03627925366163254,1.0
5.689263343811035e-05,0.03596187010407448,1.0
5.745887756347656e-05,0.03576655685901642,1.0
5.8025121688842773e-05,0.03571772947907448,1.0
5.859881639480591e-05,0.03571772947907448,1.0
5.916506052017212e-05,0.03571772947907448,1.0
5.973130464553833e-05,0.03564448654651642,1.0
6.0304999351501465e-05,0.03557124361395836,1.0
6.0871243476867676e-05,0.03547358885407448,1.0
6.143748760223389e-05,0.03535151854157448,1.0
6.201118230819702e-05,0.03515620529651642,1.0
6.257742643356323e-05,0.03496089205145836,1.0
6.314367055892944e-05,0.03478999063372612,1.0
6.371736526489258e-05,0.0346435084939003,1.0
6.428360939025879e-05,0.03449702262878418,1.0
6.485730409622192e-05,0.03435053676366806,1.0
6.542354822158813e-05,0.03415522351861,1.0
6.598979234695435e-05,0.03395991027355194,1.0
6.656348705291748e-05,0.03376460075378418,1.0
6.712973117828369e-05,0.03361811488866806,1.0
6.76959753036499e-05,0.03356928378343582,1.0
6.826967000961304e-05,0.03378901258111,1.0
6.883591413497925e-05,0.03422846645116806,1.0
6.940215826034546e-05,0.03471674770116806,1.0
6.99758529663086e-05,0.03510737419128418,1.0
7.05420970916748e-05,0.0353759303689003,1.0
7.110834121704102e-05,0.03554683178663254,1.0
7.168203592300415e-05,0.03566890209913254,1.0
7.224828004837036e-05,0.0357421413064003,1.0
7.281452417373657e-05,0.03583979979157448,1.0
7.338821887969971e-05,0.0359862856566906,1.0
7.395446300506592e-05,0.03613276779651642,1.0
7.452815771102905e-05,0.03637691214680672,1.0
7.509440183639526e-05,0.03679195046424866,1.0
7.566064596176147e-05,0.037402305752038956,1.0
7.623434066772461e-05,0.038207970559597015,1.0
7.680058479309082e-05,0.039111293852329254,1.0
7.736682891845703e-05,0.04003903269767761,1.0
7.794052362442017e-05,0.04089352488517761,1.0
7.850676774978638e-05,0.04165036603808403,1.0
7.907301187515259e-05,0.04228513315320015,1.0
7.964670658111572e-05,0.04282224178314209,1.0
8.021295070648193e-05,0.04328611120581627,1.0
8.077919483184814e-05,0.04367673769593239,1.0
8.135288953781128e-05,0.04399412125349045,1.0
8.191913366317749e-05,0.04428709298372269,1.0
8.249282836914062e-05,0.04453123360872269,1.0
8.305907249450684e-05,0.044726546853780746,1.0
8.362531661987305e-05,0.044873032718896866,1.0
8.419901132583618e-05,0.04501951485872269,1.0
8.476525545120239e-05,0.045239243656396866,1.0
8.53314995765686e-05,0.045556627213954926,1.0
8.590519428253174e-05,0.045898426324129105,1.0
8.647143840789795e-05,0.046240221709012985,1.0
8.703768253326416e-05,0.046484366059303284,1.0
8.76113772392273e-05,0.046655263751745224,1.0
8.81776213645935e-05,0.046704091131687164,1.0
8.874386548995972e-05,0.04667967930436134,1.0
8.931756019592285e-05,0.046630848199129105,1.0
8.988380432128906e-05,0.046557605266571045,1.0
9.045004844665527e-05,0.046508777886629105,1.0
9.102374315261841e-05,0.046484366059303284,1.0
9.158998727798462e-05,0.046508777886629105,1.0
9.216368198394775e-05,0.046582020819187164,1.0
9.272992610931396e-05,0.046728506684303284,1.0
9.329617023468018e-05,0.0468749925494194,1.0
9.386986494064331e-05,0.04692381992936134,1.0
9.443610906600952e-05,0.046850576996803284,1.0
9.500235319137573e-05,0.04667967930436134,1.0
9.557604789733887e-05,0.046459950506687164,1.0
9.614229202270508e-05,0.046289052814245224,1.0
9.670853614807129e-05,0.046215809881687164,1.0
9.728223085403442e-05,0.046191394329071045,1.0
9.784847497940063e-05,0.046240221709012985,1.0
9.841471910476685e-05,0.046362295746803284,1.0
9.898841381072998e-05,0.046582020819187164,1.0
9.955465793609619e-05,0.0468749925494194,1.0
0.00010012835264205933,0.04716796055436134,1.0
0.00010069459676742554,0.04738768935203552,1.0
0.00010126084089279175,0.047460928559303284,1.0
0.00010183453559875488,0.04738768935203552,1.0
0.0001024007797241211,0.047143545001745224,1.0
0.0001029670238494873,0.04680174961686134,1.0
0.00010354071855545044,0.046386707574129105,1.0
0.00010410696268081665,0.045947253704071045,1.0
0.00010467320680618286,0.045629870146512985,1.0
0.000105246901512146,0.045385729521512985,1.0
0.00010581314563751221,0.045239243656396866,1.0
0.00010637938976287842,0.045239243656396866,1.0
0.00010695308446884155,0.045288071036338806,1.0
0.00010751932859420776,0.045434556901454926,1.0
0.00010808557271957397,0.045654281973838806,1.0
0.00010865926742553711,0.045825183391571045,1.0
0.00010922551155090332,0.045971669256687164,1.0
0.00010979920625686646,0.046093739569187164,1.0
0.00011036545038223267,0.046191394329071045,1.0
0.00011093169450759888,0.046264637261629105,1.0
0.00011150538921356201,0.046313464641571045,1.0
0.00011207163333892822,0.046337880194187164,1.0
0.00011263787746429443,0.046386707574129105,1.0
0.00011321157217025757,0.046459950506687164,1.0
0.00011377781629562378,0.046557605266571045,1.0
0.00011434406042098999,0.04667967930436134,1.0
0.00011491775512695312,0.046777334064245224,1.0
0.00011548399925231934,0.046850576996803284,1.0
0.00011605024337768555,0.046826161444187164,1.0
0.00011662393808364868,0.046752918511629105,1.0
0.00011719018220901489,0.046630848199129105,1.0
0.00011776387691497803,0.046533193439245224,1.0
0.00011833012104034424,0.046508777886629105,1.0
0.00011889636516571045,0.046508777886629105,1.0
0.00011947005987167358,0.046582020819187164,1.0
0.0001200363039970398,0.04667967930436134,1.0
0.000120602548122406,0.04680174961686134,1.0
0.00012117624282836914,0.046850576996803284,1.0
0.00012174248695373535,0.046850576996803284,1.0
0.00012230873107910156,0.046752918511629105,1.0
0.0001228824257850647,0.046606436371803284,1.0
0.0001234486699104309,0.046386707574129105,1.0
0.00012401491403579712,0.046166982501745224,1.0
0.00012458860874176025,0.046020496636629105,1.0
0.00012515485286712646,0.045922838151454926,1.0
0.00012572109699249268,0.045898426324129105,1.0
0.0001262947916984558,0.045922838151454926,1.0
0.00012686103582382202,0.045971669256687164,1.0
0.00012743473052978516,0.046020496636629105,1.0
0.00012800097465515137,0.046069324016571045,1.0
0.00012856721878051758,0.046044908463954926,1.0
0.0001291409134864807,0.045971669256687164,1.0
0.00012970715761184692,0.045849598944187164,1.0
0.00013027340173721313,0.045800767838954926,1.0
0.00013084709644317627,0.045874010771512985,1.0
0.00013141334056854248,0.046118151396512985,1.0
0.0001319795846939087,0.046508777886629105,1.0
0.00013255327939987183,0.046948231756687164,1.0
0.00013311952352523804,0.04729003086686134,1.0
0.00013368576765060425,0.0474853441119194,1.0
